{
  "aor": 0.000612041884816754,
  "aqi": 0.0046739151832460735,
  "bids_meta": {
    "AcquisitionMatrixPE": 104,
    "AcquisitionNumber": 1,
    "AcquisitionTime": "13:27:33.445000",
    "BandwidthPerPixelPhaseEncode": 16.578,
    "BaseResolution": 104,
    "BodyPartExamined": "BRAIN",
    "CogAtlasID": "TODO",
    "ConsistencyInfo": "N4_VE11C_LATEST_20160120",
    "ConversionSoftware": "dcm2niix",
    "ConversionSoftwareVersion": "v1.0.20190902",
    "DerivedVendorReportedEchoSpacing": 0.000580009,
    "DeviceSerialNumber": "166018",
    "DwellTime": 2.1e-06,
    "EchoTime": 0.037,
    "EchoTrainLength": 104,
    "EffectiveEchoSpacing": 0.000580009,
    "FlipAngle": 68,
    "ImageComments": "Unaliased_MB6_PE3_LB",
    "ImageOrientationPatientDICOM": [
      0.999816,
      -0.0181907,
      0.00610851,
      0.0188483,
      0.990694,
      -0.134799
    ],
    "ImageType": [
      "ORIGINAL",
      "PRIMARY",
      "M",
      "MB",
      "ND",
      "MOSAIC"
    ],
    "ImagingFrequency": 123.191,
    "InPlanePhaseEncodingDirectionDICOM": "COL",
    "InstitutionAddress": "Washington_Place_6_NYC_NYC_US_10003",
    "InstitutionName": "NYU_Center_for_Brain_Imaging",
    "InstitutionalDepartmentName": "Department",
    "MRAcquisitionType": "2D",
    "MagneticFieldStrength": 3,
    "Manufacturer": "Siemens",
    "ManufacturersModelName": "Prisma",
    "Modality": "MR",
    "MultibandAccelerationFactor": 6,
    "NumberOfVolumes": 192,
    "PartialFourier": 1,
    "PatientPosition": "HFS",
    "PercentPhaseFOV": 100,
    "PhaseEncodingDirection": "j",
    "PhaseEncodingSteps": 104,
    "PhaseResolution": 1,
    "PixelBandwidth": 2290,
    "ProcedureStepDescription": "Investigators_Winawer",
    "ProtocolName": "cmrr_mbepi_s6_2mm_66sl_PA_task-prf",
    "PulseSequenceDetails": "%CustomerSeq%_cmrr_mbep2d_bold",
    "ReceiveCoilActiveElements": "HC1-7",
    "ReceiveCoilName": "HeadNeck_64",
    "ReconMatrixPE": 104,
    "RepetitionTime": 1,
    "SAR": 0.0810484,
    "ScanOptions": "FS",
    "ScanningSequence": "EP",
    "SequenceName": "epfid2d1_104",
    "SequenceVariant": "SK_SS",
    "SeriesDescription": "cmrr_mbepi_s6_2mm_66sl_PA_task-prf",
    "SeriesNumber": 12,
    "ShimSetting": [
      261,
      -12629,
      -8429,
      370,
      4,
      -107,
      39,
      11
    ],
    "SliceThickness": 2,
    "SliceTiming": [
      0,
      0.535,
      0.09,
      0.625,
      0.18,
      0.7125,
      0.2675,
      0.8025,
      0.3575,
      0.8925,
      0.4475,
      0,
      0.535,
      0.09,
      0.625,
      0.18,
      0.7125,
      0.2675,
      0.8025,
      0.3575,
      0.8925,
      0.4475,
      0,
      0.535,
      0.09,
      0.625,
      0.18,
      0.7125,
      0.2675,
      0.8025,
      0.3575,
      0.8925,
      0.4475,
      0,
      0.535,
      0.09,
      0.625,
      0.18,
      0.7125,
      0.2675,
      0.8025,
      0.3575,
      0.8925,
      0.4475,
      0,
      0.535,
      0.09,
      0.625,
      0.18,
      0.7125,
      0.2675,
      0.8025,
      0.3575,
      0.8925,
      0.4475,
      0,
      0.535,
      0.09,
      0.625,
      0.18,
      0.7125,
      0.2675,
      0.8025,
      0.3575,
      0.8925,
      0.4475
    ],
    "SoftwareVersions": "syngo_MR_E11",
    "SpacingBetweenSlices": 2,
    "StationName": "AWP166018",
    "TaskName": "prf",
    "TotalReadoutTime": 0.0597409,
    "TxRefAmp": 237.001,
    "WipMemBlock": "95bbb8a7-0e05-47ef-8871-1135d58a0eb7||Sequence: R016 ve11c/master r/8780670; Nov 27 2017 15:05:12 by eja",
    "acq_id": "PA",
    "dataset": "unknown",
    "dcmmeta_affine": [
      [
        -1.9996317625045776,
        0.037696659564971924,
        0.007199128624051809,
        108.37948608398438
      ],
      [
        0.036381449550390244,
        1.9813872575759888,
        -0.26977935433387756,
        -85.99949645996094
      ],
      [
        0.012217020615935326,
        0.26959872245788574,
        1.9817081689834595,
        -54.79983901977539
      ],
      [
        0.0,
        0.0,
        0.0,
        1.0
      ]
    ],
    "dcmmeta_reorient_transform": [
      [
        0.0,
        -1.0,
        0.0,
        103.0
      ],
      [
        1.0,
        0.0,
        0.0,
        0.0
      ],
      [
        0.0,
        0.0,
        1.0,
        0.0
      ],
      [
        0.0,
        0.0,
        0.0,
        1.0
      ]
    ],
    "dcmmeta_shape": [
      104,
      104,
      66,
      192
    ],
    "dcmmeta_slice_dim": 2,
    "dcmmeta_version": 0.6,
    "global": {
      "const": {
        "AccessionNumber": "juikbecn",
        "AcquisitionMatrix": [
          104,
          0,
          0,
          104
        ],
        "AngioFlag": "N",
        "BitsAllocated": 16,
        "BitsStored": 16,
        "BodyPartExamined": "BRAIN",
        "Columns": 936,
        "EchoNumbers": 1,
        "EchoTime": 37.0,
        "EchoTrainLength": 104,
        "FlipAngle": 68.0,
        "HighBit": 15,
        "ImageOrientationPatient": [
          0.99981587486344,
          -0.0181907249106,
          0.0061085103163,
          0.01884832904788,
          0.99069363302343,
          -0.1347993545198
        ],
        "ImagePositionPatient": [
          -959.79086137635,
          -927.20581243245,
          80.039610185435
        ],
        "ImageType": [
          "ORIGINAL",
          "PRIMARY",
          "M",
          "MB",
          "ND",
          "MOSAIC"
        ],
        "ImagedNucleus": "1H",
        "ImagingFrequency": 123.190777,
        "InPlanePhaseEncodingDirection": "COL",
        "MRAcquisitionType": "2D",
        "MagneticFieldStrength": 3.0,
        "Manufacturer": "SIEMENS",
        "ManufacturerModelName": "Prisma",
        "Modality": "MR",
        "NumberOfAverages": 1.0,
        "NumberOfPhaseEncodingSteps": 104,
        "PercentPhaseFieldOfView": 100.0,
        "PercentSampling": 100.0,
        "PerformedProcedureStepStartTime": "130740.727000",
        "PhotometricInterpretation": "MONOCHROME2",
        "PixelBandwidth": 2290.0,
        "PixelRepresentation": 0,
        "PixelSpacing": [
          2.0,
          2.0
        ],
        "ProtocolName": "cmrr_mbepi_s6_2mm_66sl_PA_task-prf",
        "RepetitionTime": 1000.0,
        "Rows": 936,
        "SAR": 0.08104843520262,
        "SamplesPerPixel": 1,
        "ScanOptions": "FS",
        "ScanningSequence": "EP",
        "SequenceName": "epfid2d1_104",
        "SequenceVariant": [
          "SK",
          "SS"
        ],
        "SeriesDescription": "cmrr_mbepi_s6_2mm_66sl_PA_task-prf",
        "SeriesNumber": 12,
        "SeriesTime": "132831.816000",
        "SliceLocation": -42.308082128694,
        "SliceThickness": 2.0,
        "SmallestImagePixelValue": 0,
        "SoftwareVersions": "syngo MR E11",
        "SpacingBetweenSlices": 2.0000000027933,
        "SpecificCharacterSet": "ISO_IR 100",
        "StudyID": "2",
        "StudyTime": "130740.671000",
        "TransmitCoilName": "Body",
        "VariableFlipAngleFlag": "N",
        "WindowCenterWidthExplanation": "Algo1",
        "dBdt": 0.0
      },
      "slices": {}
    },
    "modality": "bold",
    "run_id": 3,
    "session_id": "nyu3t01",
    "subject_id": "wlsubj081",
    "task_id": "prf",
    "time": {
      "samples": {
        "AcquisitionNumber": [
          1,
          2,
          3,
          4,
          5,
          6,
          7,
          8,
          9,
          10,
          11,
          12,
          13,
          14,
          15,
          16,
          17,
          18,
          19,
          20,
          21,
          22,
          23,
          24,
          25,
          26,
          27,
          28,
          29,
          30,
          31,
          32,
          33,
          34,
          35,
          36,
          37,
          38,
          39,
          40,
          41,
          42,
          43,
          44,
          45,
          46,
          47,
          48,
          49,
          50,
          51,
          52,
          53,
          54,
          55,
          56,
          57,
          58,
          59,
          60,
          61,
          62,
          63,
          64,
          65,
          66,
          67,
          68,
          69,
          70,
          71,
          72,
          73,
          74,
          75,
          76,
          77,
          78,
          79,
          80,
          81,
          82,
          83,
          84,
          85,
          86,
          87,
          88,
          89,
          90,
          91,
          92,
          93,
          94,
          95,
          96,
          97,
          98,
          99,
          100,
          101,
          102,
          103,
          104,
          105,
          106,
          107,
          108,
          109,
          110,
          111,
          112,
          113,
          114,
          115,
          116,
          117,
          118,
          119,
          120,
          121,
          122,
          123,
          124,
          125,
          126,
          127,
          128,
          129,
          130,
          131,
          132,
          133,
          134,
          135,
          136,
          137,
          138,
          139,
          140,
          141,
          142,
          143,
          144,
          145,
          146,
          147,
          148,
          149,
          150,
          151,
          152,
          153,
          154,
          155,
          156,
          157,
          158,
          159,
          160,
          161,
          162,
          163,
          164,
          165,
          166,
          167,
          168,
          169,
          170,
          171,
          172,
          173,
          174,
          175,
          176,
          177,
          178,
          179,
          180,
          181,
          182,
          183,
          184,
          185,
          186,
          187,
          188,
          189,
          190,
          191,
          192
        ],
        "AcquisitionTime": [
          "132733.445000",
          "132734.445000",
          "132735.445000",
          "132736.445000",
          "132737.445000",
          "132738.445000",
          "132739.445000",
          "132740.445000",
          "132741.445000",
          "132742.445000",
          "132743.445000",
          "132744.445000",
          "132745.445000",
          "132746.445000",
          "132747.445000",
          "132748.445000",
          "132749.445000",
          "132750.445000",
          "132751.445000",
          "132752.445000",
          "132753.445000",
          "132754.445000",
          "132755.445000",
          "132756.445000",
          "132757.445000",
          "132758.445000",
          "132759.445000",
          "132800.445000",
          "132801.445000",
          "132802.445000",
          "132803.445000",
          "132804.445000",
          "132805.445000",
          "132806.445000",
          "132807.445000",
          "132808.445000",
          "132809.445000",
          "132810.445000",
          "132811.445000",
          "132812.445000",
          "132813.445000",
          "132814.445000",
          "132815.445000",
          "132816.445000",
          "132817.445000",
          "132818.445000",
          "132819.445000",
          "132820.445000",
          "132821.445000",
          "132822.445000",
          "132823.445000",
          "132824.445000",
          "132825.445000",
          "132826.445000",
          "132827.445000",
          "132828.445000",
          "132829.445000",
          "132830.445000",
          "132831.445000",
          "132832.445000",
          "132833.445000",
          "132834.445000",
          "132835.445000",
          "132836.445000",
          "132837.445000",
          "132838.445000",
          "132839.445000",
          "132840.445000",
          "132841.445000",
          "132842.445000",
          "132843.445000",
          "132844.445000",
          "132845.445000",
          "132846.445000",
          "132847.445000",
          "132848.445000",
          "132849.445000",
          "132850.445000",
          "132851.445000",
          "132852.445000",
          "132853.445000",
          "132854.445000",
          "132855.445000",
          "132856.445000",
          "132857.445000",
          "132858.445000",
          "132859.445000",
          "132900.445000",
          "132901.445000",
          "132902.445000",
          "132903.445000",
          "132904.445000",
          "132905.445000",
          "132906.445000",
          "132907.445000",
          "132908.445000",
          "132909.445000",
          "132910.445000",
          "132911.445000",
          "132912.445000",
          "132913.445000",
          "132914.445000",
          "132915.445000",
          "132916.445000",
          "132917.445000",
          "132918.445000",
          "132919.445000",
          "132920.445000",
          "132921.445000",
          "132922.445000",
          "132923.445000",
          "132924.445000",
          "132925.445000",
          "132926.445000",
          "132927.445000",
          "132928.445000",
          "132929.445000",
          "132930.445000",
          "132931.445000",
          "132932.445000",
          "132933.445000",
          "132934.445000",
          "132935.445000",
          "132936.445000",
          "132937.445000",
          "132938.445000",
          "132939.445000",
          "132940.445000",
          "132941.445000",
          "132942.445000",
          "132943.445000",
          "132944.445000",
          "132945.445000",
          "132946.445000",
          "132947.445000",
          "132948.445000",
          "132949.445000",
          "132950.445000",
          "132951.445000",
          "132952.445000",
          "132953.445000",
          "132954.445000",
          "132955.445000",
          "132956.445000",
          "132957.445000",
          "132958.445000",
          "132959.445000",
          "133000.445000",
          "133001.445000",
          "133002.445000",
          "133003.445000",
          "133004.445000",
          "133005.445000",
          "133006.445000",
          "133007.445000",
          "133008.445000",
          "133009.445000",
          "133010.445000",
          "133011.445000",
          "133012.445000",
          "133013.445000",
          "133014.445000",
          "133015.445000",
          "133016.445000",
          "133017.445000",
          "133018.445000",
          "133019.445000",
          "133020.445000",
          "133021.445000",
          "133022.445000",
          "133023.445000",
          "133024.445000",
          "133025.445000",
          "133026.445000",
          "133027.445000",
          "133028.445000",
          "133029.445000",
          "133030.445000",
          "133031.445000",
          "133032.445000",
          "133033.445000",
          "133034.445000",
          "133035.445000",
          "133036.445000",
          "133037.445000",
          "133038.445000",
          "133039.445000",
          "133040.445000",
          "133041.445000",
          "133042.445000",
          "133043.445000",
          "133044.445000"
        ],
        "ContentTime": [
          "132831.819000",
          "132831.837000",
          "132831.839000",
          "132831.842000",
          "132831.845000",
          "132831.848000",
          "132831.851000",
          "132851.790000",
          "132851.793000",
          "132851.796000",
          "132851.799000",
          "132851.802000",
          "132851.805000",
          "132851.808000",
          "132851.811000",
          "132851.814000",
          "132851.816000",
          "132851.823000",
          "132851.826000",
          "132851.829000",
          "132851.832000",
          "132851.835000",
          "132851.838000",
          "132851.853000",
          "132851.856000",
          "132851.859000",
          "132851.862000",
          "132851.865000",
          "132851.868000",
          "132851.871000",
          "132851.874000",
          "132851.877000",
          "132851.879000",
          "132851.882000",
          "132851.885000",
          "132911.790000",
          "132911.793000",
          "132911.796000",
          "132911.799000",
          "132911.802000",
          "132911.805000",
          "132911.807000",
          "132911.810000",
          "132911.813000",
          "132911.816000",
          "132911.819000",
          "132911.822000",
          "132911.825000",
          "132911.828000",
          "132911.831000",
          "132911.834000",
          "132911.837000",
          "132911.840000",
          "132911.843000",
          "132911.846000",
          "132911.849000",
          "132911.852000",
          "132911.854000",
          "132911.857000",
          "132911.860000",
          "132911.863000",
          "132911.867000",
          "132911.870000",
          "132931.790000",
          "132931.793000",
          "132931.796000",
          "132931.799000",
          "132931.802000",
          "132931.804000",
          "132931.807000",
          "132931.810000",
          "132931.813000",
          "132931.816000",
          "132931.819000",
          "132931.822000",
          "132931.825000",
          "132931.828000",
          "132931.831000",
          "132931.834000",
          "132931.837000",
          "132931.839000",
          "132931.842000",
          "132931.845000",
          "132931.848000",
          "132931.851000",
          "132931.854000",
          "132931.857000",
          "132931.860000",
          "132931.863000",
          "132931.866000",
          "132931.869000",
          "132931.871000",
          "132951.791000",
          "132951.794000",
          "132951.797000",
          "132951.800000",
          "132951.803000",
          "132951.806000",
          "132951.809000",
          "132951.812000",
          "132951.815000",
          "132951.817000",
          "132951.820000",
          "132951.823000",
          "132951.826000",
          "132951.829000",
          "132951.832000",
          "132951.835000",
          "132951.838000",
          "132951.841000",
          "132951.844000",
          "132951.847000",
          "132951.850000",
          "132951.853000",
          "132951.856000",
          "132951.859000",
          "132951.862000",
          "132951.865000",
          "132951.868000",
          "132951.871000",
          "133011.790000",
          "133011.793000",
          "133011.796000",
          "133011.805000",
          "133011.808000",
          "133011.811000",
          "133011.814000",
          "133011.817000",
          "133011.820000",
          "133011.823000",
          "133011.826000",
          "133011.829000",
          "133011.832000",
          "133011.835000",
          "133011.838000",
          "133011.841000",
          "133011.844000",
          "133011.847000",
          "133011.849000",
          "133011.852000",
          "133011.855000",
          "133011.858000",
          "133011.861000",
          "133011.864000",
          "133011.867000",
          "133011.870000",
          "133011.873000",
          "133011.876000",
          "133031.790000",
          "133031.793000",
          "133031.796000",
          "133031.799000",
          "133031.802000",
          "133031.805000",
          "133031.808000",
          "133031.811000",
          "133031.814000",
          "133031.816000",
          "133031.819000",
          "133031.822000",
          "133031.825000",
          "133031.828000",
          "133031.831000",
          "133031.834000",
          "133031.837000",
          "133031.840000",
          "133031.843000",
          "133031.846000",
          "133031.849000",
          "133031.852000",
          "133031.854000",
          "133031.857000",
          "133031.860000",
          "133031.863000",
          "133031.866000",
          "133031.869000",
          "133046.085000",
          "133046.089000",
          "133046.092000",
          "133046.094000",
          "133046.098000",
          "133046.101000",
          "133046.103000",
          "133046.106000",
          "133046.109000",
          "133046.112000",
          "133046.115000",
          "133046.118000",
          "133046.121000",
          "133046.124000",
          "133046.127000",
          "133046.130000"
        ],
        "InstanceCreationTime": [
          "132831.819000",
          "132831.837000",
          "132831.839000",
          "132831.842000",
          "132831.845000",
          "132831.848000",
          "132831.851000",
          "132851.790000",
          "132851.793000",
          "132851.796000",
          "132851.799000",
          "132851.802000",
          "132851.805000",
          "132851.808000",
          "132851.811000",
          "132851.814000",
          "132851.816000",
          "132851.823000",
          "132851.826000",
          "132851.829000",
          "132851.832000",
          "132851.835000",
          "132851.838000",
          "132851.853000",
          "132851.856000",
          "132851.859000",
          "132851.862000",
          "132851.865000",
          "132851.868000",
          "132851.871000",
          "132851.874000",
          "132851.877000",
          "132851.879000",
          "132851.882000",
          "132851.885000",
          "132911.790000",
          "132911.793000",
          "132911.796000",
          "132911.799000",
          "132911.802000",
          "132911.805000",
          "132911.807000",
          "132911.810000",
          "132911.813000",
          "132911.816000",
          "132911.819000",
          "132911.822000",
          "132911.825000",
          "132911.828000",
          "132911.831000",
          "132911.834000",
          "132911.837000",
          "132911.840000",
          "132911.843000",
          "132911.846000",
          "132911.849000",
          "132911.852000",
          "132911.854000",
          "132911.857000",
          "132911.860000",
          "132911.863000",
          "132911.867000",
          "132911.870000",
          "132931.790000",
          "132931.793000",
          "132931.796000",
          "132931.799000",
          "132931.802000",
          "132931.804000",
          "132931.807000",
          "132931.810000",
          "132931.813000",
          "132931.816000",
          "132931.819000",
          "132931.822000",
          "132931.825000",
          "132931.828000",
          "132931.831000",
          "132931.834000",
          "132931.837000",
          "132931.839000",
          "132931.842000",
          "132931.845000",
          "132931.848000",
          "132931.851000",
          "132931.854000",
          "132931.857000",
          "132931.860000",
          "132931.863000",
          "132931.866000",
          "132931.869000",
          "132931.871000",
          "132951.791000",
          "132951.794000",
          "132951.797000",
          "132951.800000",
          "132951.803000",
          "132951.806000",
          "132951.809000",
          "132951.812000",
          "132951.815000",
          "132951.817000",
          "132951.820000",
          "132951.823000",
          "132951.826000",
          "132951.829000",
          "132951.832000",
          "132951.835000",
          "132951.838000",
          "132951.841000",
          "132951.844000",
          "132951.847000",
          "132951.850000",
          "132951.853000",
          "132951.856000",
          "132951.859000",
          "132951.862000",
          "132951.865000",
          "132951.868000",
          "132951.871000",
          "133011.790000",
          "133011.793000",
          "133011.796000",
          "133011.805000",
          "133011.808000",
          "133011.811000",
          "133011.814000",
          "133011.817000",
          "133011.820000",
          "133011.823000",
          "133011.826000",
          "133011.829000",
          "133011.832000",
          "133011.835000",
          "133011.838000",
          "133011.841000",
          "133011.844000",
          "133011.847000",
          "133011.849000",
          "133011.852000",
          "133011.855000",
          "133011.858000",
          "133011.861000",
          "133011.864000",
          "133011.867000",
          "133011.870000",
          "133011.873000",
          "133011.876000",
          "133031.790000",
          "133031.793000",
          "133031.796000",
          "133031.799000",
          "133031.802000",
          "133031.805000",
          "133031.808000",
          "133031.811000",
          "133031.814000",
          "133031.816000",
          "133031.819000",
          "133031.822000",
          "133031.825000",
          "133031.828000",
          "133031.831000",
          "133031.834000",
          "133031.837000",
          "133031.840000",
          "133031.843000",
          "133031.846000",
          "133031.849000",
          "133031.852000",
          "133031.854000",
          "133031.857000",
          "133031.860000",
          "133031.863000",
          "133031.866000",
          "133031.869000",
          "133046.085000",
          "133046.089000",
          "133046.092000",
          "133046.094000",
          "133046.098000",
          "133046.101000",
          "133046.103000",
          "133046.106000",
          "133046.109000",
          "133046.112000",
          "133046.115000",
          "133046.118000",
          "133046.121000",
          "133046.124000",
          "133046.127000",
          "133046.130000"
        ],
        "InstanceNumber": [
          1,
          2,
          3,
          4,
          5,
          6,
          7,
          8,
          9,
          10,
          11,
          12,
          13,
          14,
          15,
          16,
          17,
          18,
          19,
          20,
          21,
          22,
          23,
          24,
          25,
          26,
          27,
          28,
          29,
          30,
          31,
          32,
          33,
          34,
          35,
          36,
          37,
          38,
          39,
          40,
          41,
          42,
          43,
          44,
          45,
          46,
          47,
          48,
          49,
          50,
          51,
          52,
          53,
          54,
          55,
          56,
          57,
          58,
          59,
          60,
          61,
          62,
          63,
          64,
          65,
          66,
          67,
          68,
          69,
          70,
          71,
          72,
          73,
          74,
          75,
          76,
          77,
          78,
          79,
          80,
          81,
          82,
          83,
          84,
          85,
          86,
          87,
          88,
          89,
          90,
          91,
          92,
          93,
          94,
          95,
          96,
          97,
          98,
          99,
          100,
          101,
          102,
          103,
          104,
          105,
          106,
          107,
          108,
          109,
          110,
          111,
          112,
          113,
          114,
          115,
          116,
          117,
          118,
          119,
          120,
          121,
          122,
          123,
          124,
          125,
          126,
          127,
          128,
          129,
          130,
          131,
          132,
          133,
          134,
          135,
          136,
          137,
          138,
          139,
          140,
          141,
          142,
          143,
          144,
          145,
          146,
          147,
          148,
          149,
          150,
          151,
          152,
          153,
          154,
          155,
          156,
          157,
          158,
          159,
          160,
          161,
          162,
          163,
          164,
          165,
          166,
          167,
          168,
          169,
          170,
          171,
          172,
          173,
          174,
          175,
          176,
          177,
          178,
          179,
          180,
          181,
          182,
          183,
          184,
          185,
          186,
          187,
          188,
          189,
          190,
          191,
          192
        ],
        "LargestImagePixelValue": [
          38649,
          37487,
          37687,
          37160,
          36764,
          36828,
          36987,
          37277,
          36870,
          36655,
          36789,
          37100,
          36945,
          36761,
          37471,
          36591,
          36621,
          37310,
          37108,
          37217,
          37354,
          36987,
          36914,
          37258,
          37487,
          37445,
          37532,
          37089,
          37438,
          37138,
          37158,
          37445,
          37221,
          37707,
          37700,
          36987,
          37724,
          37387,
          37169,
          37455,
          37298,
          37403,
          37265,
          37168,
          37635,
          36653,
          37272,
          37420,
          37317,
          37249,
          37327,
          37813,
          37980,
          37320,
          37703,
          38016,
          37835,
          37282,
          38001,
          37522,
          37664,
          37473,
          37724,
          37709,
          37385,
          37529,
          37338,
          37637,
          37660,
          37253,
          37725,
          37250,
          37672,
          37783,
          37664,
          37712,
          37103,
          37427,
          37703,
          37433,
          37528,
