{
  "aor": 0.0008617187500000001,
  "aqi": 0.005198517447916667,
  "bids_meta": {
    "AcquisitionMatrixPE": 104,
    "AcquisitionNumber": 1,
    "AcquisitionTime": "13:34:40.475000",
    "BandwidthPerPixelPhaseEncode": 16.578,
    "BaseResolution": 104,
    "BodyPartExamined": "BRAIN",
    "CogAtlasID": "TODO",
    "ConsistencyInfo": "N4_VE11C_LATEST_20160120",
    "ConversionSoftware": "dcm2niix",
    "ConversionSoftwareVersion": "v1.0.20190902",
    "DerivedVendorReportedEchoSpacing": 0.000580009,
    "DeviceSerialNumber": "166018",
    "DwellTime": 2.1e-06,
    "EchoTime": 0.037,
    "EchoTrainLength": 104,
    "EffectiveEchoSpacing": 0.000580009,
    "FlipAngle": 68,
    "ImageComments": "Unaliased_MB6_PE3_LB",
    "ImageOrientationPatientDICOM": [
      0.999816,
      -0.0181907,
      0.00610851,
      0.0188483,
      0.990694,
      -0.134799
    ],
    "ImageType": [
      "ORIGINAL",
      "PRIMARY",
      "M",
      "MB",
      "ND",
      "MOSAIC"
    ],
    "ImagingFrequency": 123.191,
    "InPlanePhaseEncodingDirectionDICOM": "COL",
    "InstitutionAddress": "Washington_Place_6_NYC_NYC_US_10003",
    "InstitutionName": "NYU_Center_for_Brain_Imaging",
    "InstitutionalDepartmentName": "Department",
    "MRAcquisitionType": "2D",
    "MagneticFieldStrength": 3,
    "Manufacturer": "Siemens",
    "ManufacturersModelName": "Prisma",
    "Modality": "MR",
    "MultibandAccelerationFactor": 6,
    "NumberOfVolumes": 192,
    "PartialFourier": 1,
    "PatientPosition": "HFS",
    "PercentPhaseFOV": 100,
    "PhaseEncodingDirection": "j",
    "PhaseEncodingSteps": 104,
    "PhaseResolution": 1,
    "PixelBandwidth": 2290,
    "ProcedureStepDescription": "Investigators_Winawer",
    "ProtocolName": "cmrr_mbepi_s6_2mm_66sl_PA_task-prf",
    "PulseSequenceDetails": "%CustomerSeq%_cmrr_mbep2d_bold",
    "ReceiveCoilActiveElements": "HC1-7",
    "ReceiveCoilName": "HeadNeck_64",
    "ReconMatrixPE": 104,
    "RepetitionTime": 1,
    "SAR": 0.0810484,
    "ScanOptions": "FS",
    "ScanningSequence": "EP",
    "SequenceName": "epfid2d1_104",
    "SequenceVariant": "SK_SS",
    "SeriesDescription": "cmrr_mbepi_s6_2mm_66sl_PA_task-prf",
    "SeriesNumber": 16,
    "ShimSetting": [
      261,
      -12629,
      -8429,
      370,
      4,
      -107,
      39,
      11
    ],
    "SliceThickness": 2,
    "SliceTiming": [
      0,
      0.535,
      0.09,
      0.625,
      0.1775,
      0.7125,
      0.2675,
      0.8025,
      0.3575,
      0.8925,
      0.445,
      0,
      0.535,
      0.09,
      0.625,
      0.1775,
      0.7125,
      0.2675,
      0.8025,
      0.3575,
      0.8925,
      0.445,
      0,
      0.535,
      0.09,
      0.625,
      0.1775,
      0.7125,
      0.2675,
      0.8025,
      0.3575,
      0.8925,
      0.445,
      0,
      0.535,
      0.09,
      0.625,
      0.1775,
      0.7125,
      0.2675,
      0.8025,
      0.3575,
      0.8925,
      0.445,
      0,
      0.535,
      0.09,
      0.625,
      0.1775,
      0.7125,
      0.2675,
      0.8025,
      0.3575,
      0.8925,
      0.445,
      0,
      0.535,
      0.09,
      0.625,
      0.1775,
      0.7125,
      0.2675,
      0.8025,
      0.3575,
      0.8925,
      0.445
    ],
    "SoftwareVersions": "syngo_MR_E11",
    "SpacingBetweenSlices": 2,
    "StationName": "AWP166018",
    "TaskName": "prf",
    "TotalReadoutTime": 0.0597409,
    "TxRefAmp": 237.001,
    "WipMemBlock": "95bbb8a7-0e05-47ef-8871-1135d58a0eb7||Sequence: R016 ve11c/master r/8780670; Nov 27 2017 15:05:12 by eja",
    "acq_id": "PA",
    "dataset": "unknown",
    "dcmmeta_affine": [
      [
        -1.9996317625045776,
        0.037696659564971924,
        0.007199128624051809,
        108.37948608398438
      ],
      [
        0.036381449550390244,
        1.9813872575759888,
        -0.26977935433387756,
        -85.99949645996094
      ],
      [
        0.012217020615935326,
        0.26959872245788574,
        1.9817081689834595,
        -54.79983901977539
      ],
      [
        0.0,
        0.0,
        0.0,
        1.0
      ]
    ],
    "dcmmeta_reorient_transform": [
      [
        0.0,
        -1.0,
        0.0,
        103.0
      ],
      [
        1.0,
        0.0,
        0.0,
        0.0
      ],
      [
        0.0,
        0.0,
        1.0,
        0.0
      ],
      [
        0.0,
        0.0,
        0.0,
        1.0
      ]
    ],
    "dcmmeta_shape": [
      104,
      104,
      66,
      192
    ],
    "dcmmeta_slice_dim": 2,
    "dcmmeta_version": 0.6,
    "global": {
      "const": {
        "AccessionNumber": "juikbecn",
        "AcquisitionMatrix": [
          104,
          0,
          0,
          104
        ],
        "AngioFlag": "N",
        "BitsAllocated": 16,
        "BitsStored": 16,
        "BodyPartExamined": "BRAIN",
        "Columns": 936,
        "EchoNumbers": 1,
        "EchoTime": 37.0,
        "EchoTrainLength": 104,
        "FlipAngle": 68.0,
        "HighBit": 15,
        "ImageOrientationPatient": [
          0.99981587486344,
          -0.0181907249106,
          0.0061085103163,
          0.01884832904788,
          0.99069363302343,
          -0.1347993545198
        ],
        "ImagePositionPatient": [
          -959.79086137635,
          -927.20581243245,
          80.039610185435
        ],
        "ImageType": [
          "ORIGINAL",
          "PRIMARY",
          "M",
          "MB",
          "ND",
          "MOSAIC"
        ],
        "ImagedNucleus": "1H",
        "ImagingFrequency": 123.190777,
        "InPlanePhaseEncodingDirection": "COL",
        "MRAcquisitionType": "2D",
        "MagneticFieldStrength": 3.0,
        "Manufacturer": "SIEMENS",
        "ManufacturerModelName": "Prisma",
        "Modality": "MR",
        "NumberOfAverages": 1.0,
        "NumberOfPhaseEncodingSteps": 104,
        "PercentPhaseFieldOfView": 100.0,
        "PercentSampling": 100.0,
        "PerformedProcedureStepStartTime": "130740.727000",
        "PhotometricInterpretation": "MONOCHROME2",
        "PixelBandwidth": 2290.0,
        "PixelRepresentation": 0,
        "PixelSpacing": [
          2.0,
          2.0
        ],
        "ProtocolName": "cmrr_mbepi_s6_2mm_66sl_PA_task-prf",
        "RepetitionTime": 1000.0,
        "Rows": 936,
        "SAR": 0.08104843520262,
        "SamplesPerPixel": 1,
        "ScanOptions": "FS",
        "ScanningSequence": "EP",
        "SequenceName": "epfid2d1_104",
        "SequenceVariant": [
          "SK",
          "SS"
        ],
        "SeriesDescription": "cmrr_mbepi_s6_2mm_66sl_PA_task-prf",
        "SeriesNumber": 16,
        "SeriesTime": "133551.753000",
        "SliceLocation": -42.308082128694,
        "SliceThickness": 2.0,
        "SmallestImagePixelValue": 0,
        "SoftwareVersions": "syngo MR E11",
        "SpacingBetweenSlices": 2.0000000027933,
        "SpecificCharacterSet": "ISO_IR 100",
        "StudyID": "2",
        "StudyTime": "130740.671000",
        "TransmitCoilName": "Body",
        "VariableFlipAngleFlag": "N",
        "WindowCenterWidthExplanation": "Algo1",
        "dBdt": 0.0
      },
      "slices": {}
    },
    "modality": "bold",
    "run_id": 5,
    "session_id": "nyu3t01",
    "subject_id": "wlsubj081",
    "task_id": "prf",
    "time": {
      "samples": {
        "AcquisitionNumber": [
          1,
          2,
          3,
          4,
          5,
          6,
          7,
          8,
          9,
          10,
          11,
          12,
          13,
          14,
          15,
          16,
          17,
          18,
          19,
          20,
          21,
          22,
          23,
          24,
          25,
          26,
          27,
          28,
          29,
          30,
          31,
          32,
          33,
          34,
          35,
          36,
          37,
          38,
          39,
          40,
          41,
          42,
          43,
          44,
          45,
          46,
          47,
          48,
          49,
          50,
          51,
          52,
          53,
          54,
          55,
          56,
          57,
          58,
          59,
          60,
          61,
          62,
          63,
          64,
          65,
          66,
          67,
          68,
          69,
          70,
          71,
          72,
          73,
          74,
          75,
          76,
          77,
          78,
          79,
          80,
          81,
          82,
          83,
          84,
          85,
          86,
          87,
          88,
          89,
          90,
          91,
          92,
          93,
          94,
          95,
          96,
          97,
          98,
          99,
          100,
          101,
          102,
          103,
          104,
          105,
          106,
          107,
          108,
          109,
          110,
          111,
          112,
          113,
          114,
          115,
          116,
          117,
          118,
          119,
          120,
          121,
          122,
          123,
          124,
          125,
          126,
          127,
          128,
          129,
          130,
          131,
          132,
          133,
          134,
          135,
          136,
          137,
          138,
          139,
          140,
          141,
          142,
          143,
          144,
          145,
          146,
          147,
          148,
          149,
          150,
          151,
          152,
          153,
          154,
          155,
          156,
          157,
          158,
          159,
          160,
          161,
          162,
          163,
          164,
          165,
          166,
          167,
          168,
          169,
          170,
          171,
          172,
          173,
          174,
          175,
          176,
          177,
          178,
          179,
          180,
          181,
          182,
          183,
          184,
          185,
          186,
          187,
          188,
          189,
          190,
          191,
          192
        ],
        "AcquisitionTime": [
          "133440.475000",
          "133441.475000",
          "133442.475000",
          "133443.475000",
          "133444.475000",
          "133445.475000",
          "133446.475000",
          "133447.475000",
          "133448.475000",
          "133449.475000",
          "133450.475000",
          "133451.475000",
          "133452.475000",
          "133453.475000",
          "133454.475000",
          "133455.475000",
          "133456.475000",
          "133457.475000",
          "133458.475000",
          "133459.475000",
          "133500.475000",
          "133501.475000",
          "133502.475000",
          "133503.475000",
          "133504.475000",
          "133505.475000",
          "133506.475000",
          "133507.475000",
          "133508.475000",
          "133509.475000",
          "133510.475000",
          "133511.475000",
          "133512.475000",
          "133513.475000",
          "133514.475000",
          "133515.475000",
          "133516.475000",
          "133517.475000",
          "133518.475000",
          "133519.475000",
          "133520.475000",
          "133521.475000",
          "133522.475000",
          "133523.475000",
          "133524.475000",
          "133525.475000",
          "133526.475000",
          "133527.475000",
          "133528.475000",
          "133529.475000",
          "133530.475000",
          "133531.475000",
          "133532.475000",
          "133533.475000",
          "133534.475000",
          "133535.475000",
          "133536.475000",
          "133537.475000",
          "133538.475000",
          "133539.475000",
          "133540.475000",
          "133541.475000",
          "133542.475000",
          "133543.475000",
          "133544.475000",
          "133545.475000",
          "133546.475000",
          "133547.475000",
          "133548.475000",
          "133549.475000",
          "133550.475000",
          "133551.475000",
          "133552.475000",
          "133553.475000",
          "133554.475000",
          "133555.475000",
          "133556.475000",
          "133557.475000",
          "133558.475000",
          "133559.475000",
          "133600.475000",
          "133601.475000",
          "133602.475000",
          "133603.475000",
          "133604.475000",
          "133605.475000",
          "133606.475000",
          "133607.475000",
          "133608.475000",
          "133609.475000",
          "133610.475000",
          "133611.475000",
          "133612.475000",
          "133613.475000",
          "133614.475000",
          "133615.475000",
          "133616.475000",
          "133617.475000",
          "133618.475000",
          "133619.475000",
          "133620.475000",
          "133621.475000",
          "133622.475000",
          "133623.475000",
          "133624.475000",
          "133625.475000",
          "133626.475000",
          "133627.475000",
          "133628.475000",
          "133629.475000",
          "133630.475000",
          "133631.475000",
          "133632.475000",
          "133633.475000",
          "133634.475000",
          "133635.475000",
          "133636.475000",
          "133637.475000",
          "133638.475000",
          "133639.475000",
          "133640.475000",
          "133641.475000",
          "133642.475000",
          "133643.475000",
          "133644.475000",
          "133645.475000",
          "133646.475000",
          "133647.475000",
          "133648.475000",
          "133649.475000",
          "133650.475000",
          "133651.475000",
          "133652.475000",
          "133653.475000",
          "133654.475000",
          "133655.475000",
          "133656.475000",
          "133657.475000",
          "133658.475000",
          "133659.475000",
          "133700.475000",
          "133701.475000",
          "133702.475000",
          "133703.475000",
          "133704.475000",
          "133705.475000",
          "133706.475000",
          "133707.475000",
          "133708.475000",
          "133709.475000",
          "133710.475000",
          "133711.475000",
          "133712.475000",
          "133713.475000",
          "133714.475000",
          "133715.475000",
          "133716.475000",
          "133717.475000",
          "133718.475000",
          "133719.475000",
          "133720.475000",
          "133721.475000",
          "133722.475000",
          "133723.475000",
          "133724.475000",
          "133725.475000",
          "133726.475000",
          "133727.475000",
          "133728.475000",
          "133729.475000",
          "133730.475000",
          "133731.475000",
          "133732.475000",
          "133733.475000",
          "133734.475000",
          "133735.475000",
          "133736.475000",
          "133737.475000",
          "133738.475000",
          "133739.475000",
          "133740.475000",
          "133741.475000",
          "133742.475000",
          "133743.475000",
          "133744.475000",
          "133745.475000",
          "133746.475000",
          "133747.475000",
          "133748.475000",
          "133749.475000",
          "133750.475000",
          "133751.475000"
        ],
        "ContentTime": [
          "133551.756000",
          "133551.759000",
          "133551.762000",
          "133551.765000",
          "133551.768000",
          "133551.771000",
          "133551.774000",
          "133551.777000",
          "133551.780000",
          "133551.783000",
          "133551.786000",
          "133551.789000",
          "133551.791000",
          "133551.794000",
          "133551.805000",
          "133551.808000",
          "133551.811000",
          "133551.827000",
          "133551.833000",
          "133551.836000",
          "133551.839000",
          "133551.842000",
          "133611.721000",
          "133611.724000",
          "133611.727000",
          "133611.730000",
          "133611.733000",
          "133611.736000",
          "133611.739000",
          "133611.742000",
          "133611.745000",
          "133611.753000",
          "133611.756000",
          "133611.759000",
          "133611.762000",
          "133611.781000",
          "133611.784000",
          "133611.793000",
          "133611.796000",
          "133611.799000",
          "133611.802000",
          "133611.805000",
          "133611.808000",
          "133611.811000",
          "133611.817000",
          "133611.820000",
          "133611.822000",
          "133611.825000",
          "133611.828000",
          "133611.831000",
          "133631.721000",
          "133631.724000",
          "133631.727000",
          "133631.730000",
          "133631.733000",
          "133631.736000",
          "133631.739000",
          "133631.742000",
          "133631.745000",
          "133631.748000",
          "133631.750000",
          "133631.753000",
          "133631.756000",
          "133631.759000",
          "133631.762000",
          "133631.765000",
          "133631.768000",
          "133631.771000",
          "133631.774000",
          "133631.777000",
          "133631.780000",
          "133631.783000",
          "133631.786000",
          "133631.789000",
          "133631.792000",
          "133631.794000",
          "133631.797000",
          "133631.800000",
          "133651.721000",
          "133651.725000",
          "133651.733000",
          "133651.737000",
          "133651.741000",
          "133651.744000",
          "133651.747000",
          "133651.751000",
          "133651.754000",
          "133651.758000",
          "133651.761000",
          "133651.764000",
          "133651.768000",
          "133651.771000",
          "133651.775000",
          "133651.778000",
          "133651.782000",
          "133651.785000",
          "133651.789000",
          "133651.792000",
          "133651.795000",
          "133651.804000",
          "133651.807000",
          "133651.811000",
          "133651.814000",
          "133651.818000",
          "133651.821000",
          "133651.825000",
          "133711.721000",
          "133711.724000",
          "133711.727000",
          "133711.730000",
          "133711.733000",
          "133711.751000",
          "133711.754000",
          "133711.757000",
          "133711.760000",
          "133711.763000",
          "133711.766000",
          "133711.769000",
          "133711.772000",
          "133711.775000",
          "133711.778000",
          "133711.781000",
          "133711.784000",
          "133711.787000",
          "133711.789000",
          "133711.792000",
          "133711.795000",
          "133711.798000",
          "133711.801000",
          "133711.804000",
          "133711.807000",
          "133711.810000",
          "133711.813000",
          "133711.816000",
          "133731.721000",
          "133731.724000",
          "133731.727000",
          "133731.730000",
          "133731.733000",
          "133731.736000",
          "133731.739000",
          "133731.741000",
          "133731.744000",
          "133731.747000",
          "133731.750000",
          "133731.753000",
          "133731.756000",
          "133731.759000",
          "133731.762000",
          "133731.765000",
          "133731.768000",
          "133731.771000",
          "133731.774000",
          "133731.777000",
          "133731.780000",
          "133731.783000",
          "133731.786000",
          "133731.789000",
          "133731.791000",
          "133731.794000",
          "133731.799000",
          "133731.803000",
          "133751.721000",
          "133751.724000",
          "133751.727000",
          "133751.730000",
          "133751.733000",
          "133751.736000",
          "133751.739000",
          "133751.742000",
          "133751.744000",
          "133751.747000",
          "133751.750000",
          "133751.753000",
          "133751.756000",
          "133751.759000",
          "133751.762000",
          "133751.765000",
          "133751.768000",
          "133751.771000",
          "133751.774000",
          "133751.777000",
          "133751.780000",
          "133751.783000",
          "133751.786000",
          "133751.789000",
          "133751.792000",
          "133751.795000",
          "133751.798000",
          "133751.801000",
          "133753.366000",
          "133753.371000"
        ],
        "InstanceCreationTime": [
          "133551.756000",
          "133551.759000",
          "133551.762000",
          "133551.765000",
          "133551.768000",
          "133551.771000",
          "133551.774000",
          "133551.777000",
          "133551.780000",
          "133551.783000",
          "133551.786000",
          "133551.789000",
          "133551.791000",
          "133551.794000",
          "133551.805000",
          "133551.808000",
          "133551.811000",
          "133551.827000",
          "133551.833000",
          "133551.836000",
          "133551.839000",
          "133551.842000",
          "133611.721000",
          "133611.724000",
          "133611.727000",
          "133611.730000",
          "133611.733000",
          "133611.736000",
          "133611.739000",
          "133611.742000",
          "133611.745000",
          "133611.753000",
          "133611.756000",
          "133611.759000",
          "133611.762000",
          "133611.781000",
          "133611.784000",
          "133611.793000",
          "133611.796000",
          "133611.799000",
          "133611.802000",
          "133611.805000",
          "133611.808000",
          "133611.811000",
          "133611.817000",
          "133611.820000",
          "133611.822000",
          "133611.825000",
          "133611.828000",
          "133611.831000",
          "133631.721000",
          "133631.724000",
          "133631.727000",
          "133631.730000",
          "133631.733000",
          "133631.736000",
          "133631.739000",
          "133631.742000",
          "133631.745000",
          "133631.748000",
          "133631.750000",
          "133631.753000",
          "133631.756000",
          "133631.759000",
          "133631.762000",
          "133631.765000",
          "133631.768000",
          "133631.771000",
          "133631.774000",
          "133631.777000",
          "133631.780000",
          "133631.783000",
          "133631.786000",
          "133631.789000",
          "133631.792000",
          "133631.794000",
          "133631.797000",
          "133631.800000",
          "133651.721000",
          "133651.725000",
          "133651.733000",
          "133651.737000",
          "133651.741000",
          "133651.744000",
          "133651.747000",
          "133651.751000",
          "133651.754000",
          "133651.758000",
          "133651.761000",
          "133651.764000",
          "133651.768000",
          "133651.771000",
          "133651.775000",
          "133651.778000",
          "133651.782000",
          "133651.785000",
          "133651.789000",
          "133651.792000",
          "133651.795000",
          "133651.804000",
          "133651.807000",
          "133651.811000",
          "133651.814000",
          "133651.818000",
          "133651.821000",
          "133651.825000",
          "133711.721000",
          "133711.724000",
          "133711.727000",
          "133711.730000",
          "133711.733000",
          "133711.751000",
          "133711.754000",
          "133711.757000",
          "133711.760000",
          "133711.763000",
          "133711.766000",
          "133711.769000",
          "133711.772000",
          "133711.775000",
          "133711.778000",
          "133711.781000",
          "133711.784000",
          "133711.787000",
          "133711.789000",
          "133711.792000",
          "133711.795000",
          "133711.798000",
          "133711.801000",
          "133711.804000",
          "133711.807000",
          "133711.810000",
          "133711.813000",
          "133711.816000",
          "133731.721000",
          "133731.724000",
          "133731.727000",
          "133731.730000",
          "133731.733000",
          "133731.736000",
          "133731.739000",
          "133731.741000",
          "133731.744000",
          "133731.747000",
          "133731.750000",
          "133731.753000",
          "133731.756000",
          "133731.759000",
          "133731.762000",
          "133731.765000",
          "133731.768000",
          "133731.771000",
          "133731.774000",
          "133731.777000",
          "133731.780000",
          "133731.783000",
          "133731.786000",
          "133731.789000",
          "133731.791000",
          "133731.794000",
          "133731.799000",
          "133731.803000",
          "133751.721000",
          "133751.724000",
          "133751.727000",
          "133751.730000",
          "133751.733000",
          "133751.736000",
          "133751.739000",
          "133751.742000",
          "133751.744000",
          "133751.747000",
          "133751.750000",
          "133751.753000",
          "133751.756000",
          "133751.759000",
          "133751.762000",
          "133751.765000",
          "133751.768000",
          "133751.771000",
          "133751.774000",
          "133751.777000",
          "133751.780000",
          "133751.783000",
          "133751.786000",
          "133751.789000",
          "133751.792000",
          "133751.795000",
          "133751.798000",
          "133751.801000",
          "133753.366000",
          "133753.371000"
        ],
        "InstanceNumber": [
          1,
          2,
          3,
          4,
          5,
          6,
          7,
          8,
          9,
          10,
          11,
          12,
          13,
          14,
          15,
          16,
          17,
          18,
          19,
          20,
          21,
          22,
          23,
          24,
          25,
          26,
          27,
          28,
          29,
          30,
          31,
          32,
          33,
          34,
          35,
          36,
          37,
          38,
          39,
          40,
          41,
          42,
          43,
          44,
          45,
          46,
          47,
          48,
          49,
          50,
          51,
          52,
          53,
          54,
          55,
          56,
          57,
          58,
          59,
          60,
          61,
          62,
          63,
          64,
          65,
          66,
          67,
          68,
          69,
          70,
          71,
          72,
          73,
          74,
          75,
          76,
          77,
          78,
          79,
          80,
          81,
          82,
          83,
          84,
          85,
          86,
          87,
          88,
          89,
          90,
          91,
          92,
          93,
          94,
          95,
          96,
          97,
          98,
          99,
          100,
          101,
          102,
          103,
          104,
          105,
          106,
          107,
          108,
          109,
          110,
          111,
          112,
          113,
          114,
          115,
          116,
          117,
          118,
          119,
          120,
          121,
          122,
          123,
          124,
          125,
          126,
          127,
          128,
          129,
          130,
          131,
          132,
          133,
          134,
          135,
          136,
          137,
          138,
          139,
          140,
          141,
          142,
          143,
          144,
          145,
          146,
          147,
          148,
          149,
          150,
          151,
          152,
          153,
          154,
          155,
          156,
          157,
          158,
          159,
          160,
          161,
          162,
          163,
          164,
          165,
          166,
          167,
          168,
          169,
          170,
          171,
          172,
          173,
          174,
          175,
          176,
          177,
          178,
          179,
          180,
          181,
          182,
          183,
          184,
          185,
          186,
          187,
          188,
          189,
          190,
          191,
          192
        ],
        "LargestImagePixelValue": [
          40366,
          39412,
          38182,
          37785,
          37899,
          38342,
          37796,
          37869,
          37805,
          37523,
          37861,
          38358,
          38440,
          37618,
          37444,
          38104,
          37280,
          36919,
          36825,
          36449,
          36860,
          36900,
          36275,
          36842,
          37310,
          37075,
          37429,
          37719,
          38013,
          37463,
          36651,
          37353,
          37357,
          37374,
          37364,
          36755,
          36889,
          37080,
          36939,
          37691,
          36890,
          36663,
          36989,
          36969,
          37776,
          37008,
          36801,
          36720,
          37288,
          37359,
          37688,
          36530,
          36998,
          36720,
          37230,
          37892,
          36585,
          36738,
          36759,
          36176,
          37425,
          37616,
          37045,
          36950,
          37232,
          37512,
          37222,
          37017,
          37061,
          37754,
          37570,
          37543,
          37709,
          37031,
          36664,
          37622,
          37161,
          37012,
          37278,
          38009,
          38143,
