{
  "aor": 0.000537842105263158,
  "aqi": 0.006787056842105263,
  "bids_meta": {
    "AcquisitionMatrixPE": 104,
    "AcquisitionNumber": 1,
    "AcquisitionTime": "11:27:25.437500",
    "BandwidthPerPixelPhaseEncode": 16.578,
    "BaseResolution": 104,
    "BodyPartExamined": "BRAIN",
    "CogAtlasID": "TODO",
    "ConsistencyInfo": "N4_VE11C_LATEST_20160120",
    "ConversionSoftware": "dcm2niix",
    "ConversionSoftwareVersion": "v1.0.20190902",
    "DerivedVendorReportedEchoSpacing": 0.000580009,
    "DeviceSerialNumber": "166018",
    "DwellTime": 2.1e-06,
    "EchoTime": 0.037,
    "EchoTrainLength": 104,
    "EffectiveEchoSpacing": 0.000580009,
    "FlipAngle": 68,
    "ImageComments": "Unaliased_MB6_PE3_LB",
    "ImageOrientationPatientDICOM": [
      0.994698,
      -0.0553282,
      0.0866878,
      0.0641499,
      0.99266,
      -0.102526
    ],
    "ImageType": [
      "ORIGINAL",
      "PRIMARY",
      "M",
      "MB",
      "ND",
      "MOSAIC"
    ],
    "ImagingFrequency": 123.187,
    "InPlanePhaseEncodingDirectionDICOM": "COL",
    "InstitutionAddress": "Washington_Place_6_NYC_NYC_US_10003",
    "InstitutionName": "NYU_Center_for_Brain_Imaging",
    "InstitutionalDepartmentName": "Department",
    "MRAcquisitionType": "2D",
    "MagneticFieldStrength": 3,
    "Manufacturer": "Siemens",
    "ManufacturersModelName": "Prisma",
    "Modality": "MR",
    "MultibandAccelerationFactor": 6,
    "NumberOfVolumes": 192,
    "PartialFourier": 1,
    "PatientPosition": "HFS",
    "PercentPhaseFOV": 100,
    "PhaseEncodingDirection": "j",
    "PhaseEncodingSteps": 104,
    "PhaseResolution": 1,
    "PixelBandwidth": 2290,
    "ProcedureStepDescription": "Investigators_Winawer",
    "ProtocolName": "cmrr_mbepi_s6_2mm_66sl_PA_TR1.0",
    "PulseSequenceDetails": "%CustomerSeq%_cmrr_mbep2d_bold",
    "ReceiveCoilActiveElements": "HC1-7",
    "ReceiveCoilName": "HeadNeck_64",
    "ReconMatrixPE": 104,
    "RepetitionTime": 1,
    "SAR": 0.0783302,
    "ScanOptions": "FS",
    "ScanningSequence": "EP",
    "SequenceName": "epfid2d1_104",
    "SequenceVariant": "SK_SS",
    "SeriesDescription": "cmrr_mbepi_s6_2mm_66sl_PA_TR1.0",
    "SeriesNumber": 10,
    "ShimSetting": [
      289,
      -12569,
      -8490,
      291,
      -7,
      19,
      -115,
      -20
    ],
    "SliceThickness": 2,
    "SliceTiming": [
      0,
      0.535,
      0.09,
      0.625,
      0.18,
      0.7125,
      0.2675,
      0.8025,
      0.3575,
      0.8925,
      0.4475,
      0,
      0.535,
      0.09,
      0.625,
      0.18,
      0.7125,
      0.2675,
      0.8025,
      0.3575,
      0.8925,
      0.4475,
      0,
      0.535,
      0.09,
      0.625,
      0.18,
      0.7125,
      0.2675,
      0.8025,
      0.3575,
      0.8925,
      0.4475,
      0,
      0.535,
      0.09,
      0.625,
      0.18,
      0.7125,
      0.2675,
      0.8025,
      0.3575,
      0.8925,
      0.4475,
      0,
      0.535,
      0.09,
      0.625,
      0.18,
      0.7125,
      0.2675,
      0.8025,
      0.3575,
      0.8925,
      0.4475,
      0,
      0.535,
      0.09,
      0.625,
      0.18,
      0.7125,
      0.2675,
      0.8025,
      0.3575,
      0.8925,
      0.4475
    ],
    "SoftwareVersions": "syngo_MR_E11",
    "SpacingBetweenSlices": 2,
    "StationName": "AWP166018",
    "TaskName": "prf",
    "TotalReadoutTime": 0.0597409,
    "TxRefAmp": 208.721,
    "WipMemBlock": "a466239c-b909-428d-8fb1-260c82f4a55c||Sequence: ve11c/master r/ab69a6c; Apr 19 2017 09:47:47 by eja",
    "acq_id": "PA",
    "dataset": "unknown",
    "dcmmeta_affine": [
      [
        -1.9893958568572998,
        0.12829983234405518,
        0.16075778007507324,
        101.37809753417969
      ],
      [
        0.11065631359815598,
        1.9853192567825317,
        -0.21508699655532837,
        -65.62957763671875
      ],
      [
        0.17337557673454285,
        0.20505216717720032,
        1.9818916320800781,
        -67.0409164428711
      ],
      [
        0.0,
        0.0,
        0.0,
        1.0
      ]
    ],
    "dcmmeta_reorient_transform": [
      [
        0.0,
        -1.0,
        0.0,
        103.0
      ],
      [
        1.0,
        0.0,
        0.0,
        0.0
      ],
      [
        0.0,
        0.0,
        1.0,
        0.0
      ],
      [
        0.0,
        0.0,
        0.0,
        1.0
      ]
    ],
    "dcmmeta_shape": [
      104,
      104,
      66,
      192
    ],
    "dcmmeta_slice_dim": 2,
    "dcmmeta_version": 0.6,
    "global": {
      "const": {
        "AccessionNumber": "j66ik478",
        "AcquisitionMatrix": [
          104,
          0,
          0,
          104
        ],
        "AngioFlag": "N",
        "BitsAllocated": 16,
        "BitsStored": 16,
        "BodyPartExamined": "BRAIN",
        "Columns": 936,
        "EchoNumbers": 1,
        "EchoTime": 37.0,
        "EchoTrainLength": 104,
        "FlipAngle": 68.0,
        "HighBit": 15,
        "ImageOrientationPatient": [
          0.99469795526587,
          -0.0553281562539,
          0.08668778988672,
          0.06414991394605,
          0.99265965485144,
          -0.1025260853195
        ],
        "ImagePositionPatient": [
          -995.55441012872,
          -918.71811429132,
          -32.743077795519
        ],
        "ImageType": [
          "ORIGINAL",
          "PRIMARY",
          "M",
          "MB",
          "ND",
          "MOSAIC"
        ],
        "ImagedNucleus": "1H",
        "ImagingFrequency": 123.187278,
        "InPlanePhaseEncodingDirection": "COL",
        "MRAcquisitionType": "2D",
        "MagneticFieldStrength": 3.0,
        "Manufacturer": "SIEMENS",
        "ManufacturerModelName": "Prisma",
        "Modality": "MR",
        "NumberOfAverages": 1.0,
        "NumberOfPhaseEncodingSteps": 104,
        "PercentPhaseFieldOfView": 100.0,
        "PercentSampling": 100.0,
        "PerformedProcedureStepStartTime": "111750.314000",
        "PhotometricInterpretation": "MONOCHROME2",
        "PixelBandwidth": 2290.0,
        "PixelRepresentation": 0,
        "PixelSpacing": [
          2.0,
          2.0
        ],
        "ProtocolName": "cmrr_mbepi_s6_2mm_66sl_PA_TR1.0",
        "RepetitionTime": 1000.0,
        "Rows": 936,
        "SAR": 0.07833016078607,
        "SamplesPerPixel": 1,
        "ScanOptions": "FS",
        "ScanningSequence": "EP",
        "SequenceName": "epfid2d1_104",
        "SequenceVariant": [
          "SK",
          "SS"
        ],
        "SeriesDescription": "cmrr_mbepi_s6_2mm_66sl_PA_TR1.0",
        "SeriesNumber": 10,
        "SeriesTime": "112852.108000",
        "SliceLocation": -51.227218599238,
        "SliceThickness": 2.0,
        "SmallestImagePixelValue": 0,
        "SoftwareVersions": "syngo MR E11",
        "SpacingBetweenSlices": 1.9999999826765,
        "SpecificCharacterSet": "ISO_IR 100",
        "StudyID": "2",
        "StudyTime": "111750.025000",
        "TransmitCoilName": "Body",
        "VariableFlipAngleFlag": "N",
        "WindowCenterWidthExplanation": "Algo1",
        "dBdt": 0.0
      },
      "slices": {}
    },
    "modality": "bold",
    "run_id": 2,
    "session_id": "nyu3t01",
    "subject_id": "wlsubj014",
    "task_id": "prf",
    "time": {
      "samples": {
        "AcquisitionNumber": [
          1,
          2,
          3,
          4,
          5,
          6,
          7,
          8,
          9,
          10,
          11,
          12,
          13,
          14,
          15,
          16,
          17,
          18,
          19,
          20,
          21,
          22,
          23,
          24,
          25,
          26,
          27,
          28,
          29,
          30,
          31,
          32,
          33,
          34,
          35,
          36,
          37,
          38,
          39,
          40,
          41,
          42,
          43,
          44,
          45,
          46,
          47,
          48,
          49,
          50,
          51,
          52,
          53,
          54,
          55,
          56,
          57,
          58,
          59,
          60,
          61,
          62,
          63,
          64,
          65,
          66,
          67,
          68,
          69,
          70,
          71,
          72,
          73,
          74,
          75,
          76,
          77,
          78,
          79,
          80,
          81,
          82,
          83,
          84,
          85,
          86,
          87,
          88,
          89,
          90,
          91,
          92,
          93,
          94,
          95,
          96,
          97,
          98,
          99,
          100,
          101,
          102,
          103,
          104,
          105,
          106,
          107,
          108,
          109,
          110,
          111,
          112,
          113,
          114,
          115,
          116,
          117,
          118,
          119,
          120,
          121,
          122,
          123,
          124,
          125,
          126,
          127,
          128,
          129,
          130,
          131,
          132,
          133,
          134,
          135,
          136,
          137,
          138,
          139,
          140,
          141,
          142,
          143,
          144,
          145,
          146,
          147,
          148,
          149,
          150,
          151,
          152,
          153,
          154,
          155,
          156,
          157,
          158,
          159,
          160,
          161,
          162,
          163,
          164,
          165,
          166,
          167,
          168,
          169,
          170,
          171,
          172,
          173,
          174,
          175,
          176,
          177,
          178,
          179,
          180,
          181,
          182,
          183,
          184,
          185,
          186,
          187,
          188,
          189,
          190,
          191,
          192
        ],
        "AcquisitionTime": [
          "112725.437500",
          "112726.437500",
          "112727.437500",
          "112728.437500",
          "112729.437500",
          "112730.437500",
          "112731.437500",
          "112732.437500",
          "112733.437500",
          "112734.437500",
          "112735.437500",
          "112736.437500",
          "112737.437500",
          "112738.437500",
          "112739.437500",
          "112740.437500",
          "112741.437500",
          "112742.437500",
          "112743.437500",
          "112744.437500",
          "112745.437500",
          "112746.437500",
          "112747.437500",
          "112748.437500",
          "112749.437500",
          "112750.437500",
          "112751.437500",
          "112752.437500",
          "112753.437500",
          "112754.437500",
          "112755.437500",
          "112756.437500",
          "112757.437500",
          "112758.437500",
          "112759.437500",
          "112800.437500",
          "112801.437500",
          "112802.437500",
          "112803.437500",
          "112804.437500",
          "112805.437500",
          "112806.437500",
          "112807.437500",
          "112808.437500",
          "112809.437500",
          "112810.437500",
          "112811.437500",
          "112812.437500",
          "112813.437500",
          "112814.437500",
          "112815.437500",
          "112816.437500",
          "112817.437500",
          "112818.437500",
          "112819.437500",
          "112820.437500",
          "112821.437500",
          "112822.437500",
          "112823.437500",
          "112824.437500",
          "112825.437500",
          "112826.437500",
          "112827.437500",
          "112828.437500",
          "112829.437500",
          "112830.437500",
          "112831.437500",
          "112832.437500",
          "112833.437500",
          "112834.437500",
          "112835.437500",
          "112836.437500",
          "112837.437500",
          "112838.437500",
          "112839.437500",
          "112840.437500",
          "112841.437500",
          "112842.437500",
          "112843.437500",
          "112844.437500",
          "112845.437500",
          "112846.437500",
          "112847.437500",
          "112848.437500",
          "112849.437500",
          "112850.437500",
          "112851.437500",
          "112852.437500",
          "112853.437500",
          "112854.437500",
          "112855.437500",
          "112856.437500",
          "112857.437500",
          "112858.437500",
          "112859.437500",
          "112900.437500",
          "112901.437500",
          "112902.437500",
          "112903.437500",
          "112904.437500",
          "112905.437500",
          "112906.437500",
          "112907.437500",
          "112908.437500",
          "112909.437500",
          "112910.437500",
          "112911.437500",
          "112912.437500",
          "112913.437500",
          "112914.437500",
          "112915.437500",
          "112916.437500",
          "112917.437500",
          "112918.437500",
          "112919.437500",
          "112920.437500",
          "112921.437500",
          "112922.437500",
          "112923.437500",
          "112924.437500",
          "112925.437500",
          "112926.437500",
          "112927.437500",
          "112928.437500",
          "112929.437500",
          "112930.437500",
          "112931.437500",
          "112932.437500",
          "112933.437500",
          "112934.437500",
          "112935.437500",
          "112936.437500",
          "112937.437500",
          "112938.437500",
          "112939.437500",
          "112940.437500",
          "112941.437500",
          "112942.437500",
          "112943.437500",
          "112944.437500",
          "112945.437500",
          "112946.437500",
          "112947.437500",
          "112948.437500",
          "112949.437500",
          "112950.437500",
          "112951.437500",
          "112952.437500",
          "112953.437500",
          "112954.437500",
          "112955.437500",
          "112956.437500",
          "112957.437500",
          "112958.437500",
          "112959.437500",
          "113000.437500",
          "113001.437500",
          "113002.437500",
          "113003.437500",
          "113004.437500",
          "113005.437500",
          "113006.437500",
          "113007.437500",
          "113008.437500",
          "113009.437500",
          "113010.437500",
          "113011.437500",
          "113012.437500",
          "113013.437500",
          "113014.437500",
          "113015.437500",
          "113016.437500",
          "113017.437500",
          "113018.437500",
          "113019.437500",
          "113020.437500",
          "113021.437500",
          "113022.437500",
          "113023.437500",
          "113024.437500",
          "113025.437500",
          "113026.437500",
          "113027.437500",
          "113028.437500",
          "113029.437500",
          "113030.437500",
          "113031.437500",
          "113032.437500",
          "113033.437500",
          "113034.437500",
          "113035.437500",
          "113036.437500"
        ],
        "ContentTime": [
          "112852.111000",
          "112852.115000",
          "112852.118000",
          "112852.121000",
          "112852.124000",
          "112852.127000",
          "112852.131000",
          "112852.134000",
          "112852.139000",
          "112852.142000",
          "112852.145000",
          "112852.148000",
          "112852.151000",
          "112852.154000",
          "112852.157000",
          "112852.243000",
          "112852.246000",
          "112852.249000",
          "112852.252000",
          "112852.255000",
          "112852.258000",
          "112852.261000",
          "112852.264000",
          "112852.267000",
          "112852.271000",
          "112852.274000",
          "112852.277000",
          "112852.280000",
          "112852.283000",
          "112852.286000",
          "112852.289000",
          "112852.292000",
          "112852.295000",
          "112852.298000",
          "112852.301000",
          "112852.304000",
          "112852.308000",
          "112852.311000",
          "112852.314000",
          "112852.317000",
          "112852.320000",
          "112852.323000",
          "112852.326000",
          "112912.077000",
          "112912.080000",
          "112912.083000",
          "112912.086000",
          "112912.089000",
          "112912.093000",
          "112912.096000",
          "112912.107000",
          "112912.111000",
          "112912.114000",
          "112912.117000",
          "112912.120000",
          "112912.123000",
          "112912.126000",
          "112912.129000",
          "112912.132000",
          "112912.135000",
          "112912.138000",
          "112912.141000",
          "112912.144000",
          "112912.148000",
          "112912.151000",
          "112912.153000",
          "112912.157000",
          "112912.185000",
          "112912.188000",
          "112912.191000",
          "112912.194000",
          "112932.078000",
          "112932.081000",
          "112932.084000",
          "112932.087000",
          "112932.091000",
          "112932.094000",
          "112932.097000",
          "112932.100000",
          "112932.103000",
          "112932.106000",
          "112932.109000",
          "112932.112000",
          "112932.115000",
          "112932.118000",
          "112932.121000",
          "112932.124000",
          "112932.127000",
          "112932.130000",
          "112932.133000",
          "112932.136000",
          "112932.140000",
          "112932.143000",
          "112932.146000",
          "112932.149000",
          "112932.152000",
          "112932.155000",
          "112932.158000",
          "112932.161000",
          "112952.098000",
          "112952.101000",
          "112952.104000",
          "112952.107000",
          "112952.111000",
          "112952.114000",
          "112952.117000",
          "112952.120000",
          "112952.123000",
          "112952.126000",
          "112952.129000",
          "112952.132000",
          "112952.135000",
          "112952.138000",
          "112952.141000",
          "112952.144000",
          "112952.148000",
          "112952.154000",
          "112952.158000",
          "112952.181000",
          "112952.184000",
          "112952.187000",
          "112952.191000",
          "112952.194000",
          "112952.197000",
          "112952.200000",
          "112952.203000",
          "112952.206000",
          "113012.078000",
          "113012.081000",
          "113012.089000",
          "113012.092000",
          "113012.095000",
          "113012.098000",
          "113012.101000",
          "113012.104000",
          "113012.107000",
          "113012.110000",
          "113012.113000",
          "113012.116000",
          "113012.119000",
          "113012.122000",
          "113012.126000",
          "113012.129000",
          "113012.132000",
          "113012.135000",
          "113012.138000",
          "113012.141000",
          "113012.144000",
          "113012.147000",
          "113012.150000",
          "113012.153000",
          "113012.156000",
          "113012.159000",
          "113012.163000",
          "113012.166000",
          "113012.169000",
          "113032.078000",
          "113032.081000",
          "113032.084000",
          "113032.092000",
          "113032.095000",
          "113032.098000",
          "113032.101000",
          "113032.104000",
          "113032.107000",
          "113032.111000",
          "113032.114000",
          "113032.117000",
          "113032.120000",
          "113032.123000",
          "113032.126000",
          "113032.129000",
          "113032.132000",
          "113032.135000",
          "113032.138000",
          "113032.141000",
          "113032.144000",
          "113032.148000",
          "113032.151000",
          "113032.154000",
          "113032.157000",
          "113032.160000",
          "113032.163000",
          "113032.166000",
          "113038.234000",
          "113038.238000",
          "113038.241000",
          "113038.245000",
          "113038.248000",
          "113038.251000",
          "113038.255000",
          "113038.258000"
        ],
        "InstanceCreationTime": [
          "112852.111000",
          "112852.115000",
          "112852.118000",
          "112852.121000",
          "112852.124000",
          "112852.127000",
          "112852.131000",
          "112852.134000",
          "112852.139000",
          "112852.142000",
          "112852.145000",
          "112852.148000",
          "112852.151000",
          "112852.154000",
          "112852.157000",
          "112852.243000",
          "112852.246000",
          "112852.249000",
          "112852.252000",
          "112852.255000",
          "112852.258000",
          "112852.261000",
          "112852.264000",
          "112852.267000",
          "112852.271000",
          "112852.274000",
          "112852.277000",
          "112852.280000",
          "112852.283000",
          "112852.286000",
          "112852.289000",
          "112852.292000",
          "112852.295000",
          "112852.298000",
          "112852.301000",
          "112852.304000",
          "112852.308000",
          "112852.311000",
          "112852.314000",
          "112852.317000",
          "112852.320000",
          "112852.323000",
          "112852.326000",
          "112912.077000",
          "112912.080000",
          "112912.083000",
          "112912.086000",
          "112912.089000",
          "112912.093000",
          "112912.096000",
          "112912.107000",
          "112912.111000",
          "112912.114000",
          "112912.117000",
          "112912.120000",
          "112912.123000",
          "112912.126000",
          "112912.129000",
          "112912.132000",
          "112912.135000",
          "112912.138000",
          "112912.141000",
          "112912.144000",
          "112912.148000",
          "112912.151000",
          "112912.153000",
          "112912.157000",
          "112912.185000",
          "112912.188000",
          "112912.191000",
          "112912.194000",
          "112932.078000",
          "112932.081000",
          "112932.084000",
          "112932.087000",
          "112932.091000",
          "112932.094000",
          "112932.097000",
          "112932.100000",
          "112932.103000",
          "112932.106000",
          "112932.109000",
          "112932.112000",
          "112932.115000",
          "112932.118000",
          "112932.121000",
          "112932.124000",
          "112932.127000",
          "112932.130000",
          "112932.133000",
          "112932.136000",
          "112932.140000",
          "112932.143000",
          "112932.146000",
          "112932.149000",
          "112932.152000",
          "112932.155000",
          "112932.158000",
          "112932.161000",
          "112952.098000",
          "112952.101000",
          "112952.104000",
          "112952.107000",
          "112952.111000",
          "112952.114000",
          "112952.117000",
          "112952.120000",
          "112952.123000",
          "112952.126000",
          "112952.129000",
          "112952.132000",
          "112952.135000",
          "112952.138000",
          "112952.141000",
          "112952.144000",
          "112952.148000",
          "112952.154000",
          "112952.158000",
          "112952.181000",
          "112952.184000",
          "112952.187000",
          "112952.191000",
          "112952.194000",
          "112952.197000",
          "112952.200000",
          "112952.203000",
          "112952.206000",
          "113012.078000",
          "113012.081000",
          "113012.089000",
          "113012.092000",
          "113012.095000",
          "113012.098000",
          "113012.101000",
          "113012.104000",
          "113012.107000",
          "113012.110000",
          "113012.113000",
          "113012.116000",
          "113012.119000",
          "113012.122000",
          "113012.126000",
          "113012.129000",
          "113012.132000",
          "113012.135000",
          "113012.138000",
          "113012.141000",
          "113012.144000",
          "113012.147000",
          "113012.150000",
          "113012.153000",
          "113012.156000",
          "113012.159000",
          "113012.163000",
          "113012.166000",
          "113012.169000",
          "113032.078000",
          "113032.081000",
          "113032.084000",
          "113032.092000",
          "113032.095000",
          "113032.098000",
          "113032.101000",
          "113032.104000",
          "113032.107000",
          "113032.111000",
          "113032.114000",
          "113032.117000",
          "113032.120000",
          "113032.123000",
          "113032.126000",
          "113032.129000",
          "113032.132000",
          "113032.135000",
          "113032.138000",
          "113032.141000",
          "113032.144000",
          "113032.148000",
          "113032.151000",
          "113032.154000",
          "113032.157000",
          "113032.160000",
          "113032.163000",
          "113032.166000",
          "113038.234000",
          "113038.238000",
          "113038.241000",
          "113038.245000",
          "113038.248000",
          "113038.251000",
          "113038.255000",
          "113038.258000"
        ],
        "InstanceNumber": [
          1,
          2,
          3,
          4,
          5,
          6,
          7,
          8,
          9,
          10,
          11,
          12,
          13,
          14,
          15,
          16,
          17,
          18,
          19,
          20,
          21,
          22,
          23,
          24,
          25,
          26,
          27,
          28,
          29,
          30,
          31,
          32,
          33,
          34,
          35,
          36,
          37,
          38,
          39,
          40,
          41,
          42,
          43,
          44,
          45,
          46,
          47,
          48,
          49,
          50,
          51,
          52,
          53,
          54,
          55,
          56,
          57,
          58,
          59,
          60,
          61,
          62,
          63,
          64,
          65,
          66,
          67,
          68,
          69,
          70,
          71,
          72,
          73,
          74,
          75,
          76,
          77,
          78,
          79,
          80,
          81,
          82,
          83,
          84,
          85,
          86,
          87,
          88,
          89,
          90,
          91,
          92,
          93,
          94,
          95,
          96,
          97,
          98,
          99,
          100,
          101,
          102,
          103,
          104,
          105,
          106,
          107,
          108,
          109,
          110,
          111,
          112,
          113,
          114,
          115,
          116,
          117,
          118,
          119,
          120,
          121,
          122,
          123,
          124,
          125,
          126,
          127,
          128,
          129,
          130,
          131,
          132,
          133,
          134,
          135,
          136,
          137,
          138,
          139,
          140,
          141,
          142,
          143,
          144,
          145,
          146,
          147,
          148,
          149,
          150,
          151,
          152,
          153,
          154,
          155,
          156,
          157,
          158,
          159,
          160,
          161,
          162,
          163,
          164,
          165,
          166,
          167,
          168,
          169,
          170,
          171,
          172,
          173,
          174,
          175,
          176,
          177,
          178,
          179,
          180,
          181,
          182,
          183,
          184,
          185,
          186,
          187,
          188,
          189,
          190,
          191,
          192
        ],
        "LargestImagePixelValue": [
          36249,
          35469,
          34617,
          34172,
          33686,
          34000,
          40955,
          34177,
          33756,
          33739,
          33513,
          33468,
          33513,
          33347,
          33414,
          33293,
          33164,
          33473,
          33314,
          33803,
          33788,
          34312,
          33952,
          33831,
          33685,
          33269,
          34038,
          33561,
          34706,
          33981,
          33993,
          33750,
          33284,
          33633,
          33561,
          34102,
          33623,
          33551,
          33395,
          33588,
          33823,
          33706,
          35973,
          34645,
          33550,
          33927,
          33913,
          34466,
          39019,
          34322,
          33962,
          33654,
          34098,
          33341,
          33992,
          33536,
          33832,
          33571,
          33772,
          33613,
          33501,
          33692,
          33401,
          33920,
          33684,
          33964,
          33641,
          33776,
          35613,
          33416,
          33603,
          33969,
          34422,
          37209,
          34308,
          33735,
          33920,
          33666,
          33903,
          33641,
          33771,
          33868,
