{
  "aor": 0.00045911458333333335,
  "aqi": 0.005322467187500002,
  "bids_meta": {
    "AcquisitionMatrixPE": 104,
    "AcquisitionNumber": 1,
    "AcquisitionTime": "11:50:3.427500",
    "BandwidthPerPixelPhaseEncode": 16.578,
    "BaseResolution": 104,
    "BodyPartExamined": "BRAIN",
    "CogAtlasID": "TODO",
    "ConsistencyInfo": "N4_VE11C_LATEST_20160120",
    "ConversionSoftware": "dcm2niix",
    "ConversionSoftwareVersion": "v1.0.20190902",
    "DerivedVendorReportedEchoSpacing": 0.000580009,
    "DeviceSerialNumber": "166018",
    "DwellTime": 2.1e-06,
    "EchoTime": 0.037,
    "EchoTrainLength": 104,
    "EffectiveEchoSpacing": 0.000580009,
    "FlipAngle": 68,
    "ImageComments": "Unaliased_MB6_PE3_LB",
    "ImageOrientationPatientDICOM": [
      0.996785,
      0.0233346,
      -0.076648,
      -0.0436949,
      0.960186,
      -0.275922
    ],
    "ImageType": [
      "ORIGINAL",
      "PRIMARY",
      "M",
      "MB",
      "ND",
      "MOSAIC"
    ],
    "ImagingFrequency": 123.191,
    "InPlanePhaseEncodingDirectionDICOM": "COL",
    "InstitutionAddress": "Washington_Place_6_NYC_NYC_US_10003",
    "InstitutionName": "NYU_Center_for_Brain_Imaging",
    "InstitutionalDepartmentName": "Department",
    "MRAcquisitionType": "2D",
    "MagneticFieldStrength": 3,
    "Manufacturer": "Siemens",
    "ManufacturersModelName": "Prisma",
    "Modality": "MR",
    "MultibandAccelerationFactor": 6,
    "NumberOfVolumes": 192,
    "PartialFourier": 1,
    "PatientPosition": "HFS",
    "PercentPhaseFOV": 100,
    "PhaseEncodingDirection": "j",
    "PhaseEncodingSteps": 104,
    "PhaseResolution": 1,
    "PixelBandwidth": 2290,
    "ProcedureStepDescription": "Investigators_Winawer",
    "ProtocolName": "cmrr_mbepi_s6_2mm_66sl_PA_task-prf",
    "PulseSequenceDetails": "%CustomerSeq%_cmrr_mbep2d_bold",
    "ReceiveCoilActiveElements": "HC1-7",
    "ReceiveCoilName": "HeadNeck_64",
    "ReconMatrixPE": 104,
    "RepetitionTime": 1,
    "SAR": 0.0663319,
    "ScanOptions": "FS",
    "ScanningSequence": "EP",
    "SequenceName": "epfid2d1_104",
    "SequenceVariant": "SK_SS",
    "SeriesDescription": "cmrr_mbepi_s6_2mm_66sl_PA_task-prf",
    "SeriesNumber": 8,
    "ShimSetting": [
      245,
      -12554,
      -8562,
      422,
      66,
      50,
      -219,
      -87
    ],
    "SliceThickness": 2,
    "SliceTiming": [
      0,
      0.535,
      0.09,
      0.625,
      0.18,
      0.7125,
      0.2675,
      0.8025,
      0.3575,
      0.8925,
      0.445,
      0,
      0.535,
      0.09,
      0.625,
      0.18,
      0.7125,
      0.2675,
      0.8025,
      0.3575,
      0.8925,
      0.445,
      0,
      0.535,
      0.09,
      0.625,
      0.18,
      0.7125,
      0.2675,
      0.8025,
      0.3575,
      0.8925,
      0.445,
      0,
      0.535,
      0.09,
      0.625,
      0.18,
      0.7125,
      0.2675,
      0.8025,
      0.3575,
      0.8925,
      0.445,
      0,
      0.535,
      0.09,
      0.625,
      0.18,
      0.7125,
      0.2675,
      0.8025,
      0.3575,
      0.8925,
      0.445,
      0,
      0.535,
      0.09,
      0.625,
      0.18,
      0.7125,
      0.2675,
      0.8025,
      0.3575,
      0.8925,
      0.445
    ],
    "SoftwareVersions": "syngo_MR_E11",
    "SpacingBetweenSlices": 2,
    "StationName": "AWP166018",
    "TaskName": "prf",
    "TotalReadoutTime": 0.0597409,
    "TxRefAmp": 213.971,
    "WipMemBlock": "f866c7b3-6c9a-41c3-99be-aca2006e3f08||Sequence: R016 ve11c/master r/8780670; Nov 27 2017 15:05:12 by eja",
    "acq_id": "PA",
    "dataset": "unknown",
    "dcmmeta_affine": [
      [
        -1.9935702085494995,
        -0.08738978207111359,
        -0.13431575894355774,
        114.13873291015625
      ],
      [
        -0.04666911065578461,
        1.9203726053237915,
        -0.556768536567688,
        -67.99539947509766
      ],
      [
        -0.15329609811306,
        0.5518444180488586,
        1.9162379503250122,
        -89.17717742919922
      ],
      [
        0.0,
        0.0,
        0.0,
        1.0
      ]
    ],
    "dcmmeta_reorient_transform": [
      [
        0.0,
        -1.0,
        0.0,
        103.0
      ],
      [
        1.0,
        0.0,
        0.0,
        0.0
      ],
      [
        0.0,
        0.0,
        1.0,
        0.0
      ],
      [
        0.0,
        0.0,
        0.0,
        1.0
      ]
    ],
    "dcmmeta_shape": [
      104,
      104,
      66,
      192
    ],
    "dcmmeta_slice_dim": 2,
    "dcmmeta_version": 0.6,
    "global": {
      "const": {
        "AccessionNumber": "ju9rrvrc",
        "AcquisitionMatrix": [
          104,
          0,
          0,
          104
        ],
        "AngioFlag": "N",
        "BitsAllocated": 16,
        "BitsStored": 16,
        "BodyPartExamined": "BRAIN",
        "Columns": 936,
        "EchoNumbers": 1,
        "EchoTime": 37.0,
        "EchoTrainLength": 104,
        "FlipAngle": 68.0,
        "HighBit": 15,
        "ImageOrientationPatient": [
          0.99678512002101,
          0.02333455517891,
          -0.0766480465459,
          -0.043694891442,
          0.96018628109348,
          -0.2759222029155
        ],
        "ImagePositionPatient": [
          -898.10865449242,
          -948.09230839976,
          261.00124452365
        ],
        "ImageType": [
          "ORIGINAL",
          "PRIMARY",
          "M",
          "MB",
          "ND",
          "MOSAIC"
        ],
        "ImagedNucleus": "1H",
        "ImagingFrequency": 123.191134,
        "InPlanePhaseEncodingDirection": "COL",
        "MRAcquisitionType": "2D",
        "MagneticFieldStrength": 3.0,
        "Manufacturer": "SIEMENS",
        "ManufacturerModelName": "Prisma",
        "Modality": "MR",
        "NumberOfAverages": 1.0,
        "NumberOfPhaseEncodingSteps": 104,
        "PercentPhaseFieldOfView": 100.0,
        "PercentSampling": 100.0,
        "PerformedProcedureStepStartTime": "113034.319000",
        "PhotometricInterpretation": "MONOCHROME2",
        "PixelBandwidth": 2290.0,
        "PixelRepresentation": 0,
        "PixelSpacing": [
          2.0,
          2.0
        ],
        "ProtocolName": "cmrr_mbepi_s6_2mm_66sl_PA_task-prf",
        "RepetitionTime": 1000.0,
        "Rows": 936,
        "SAR": 0.0663319482361,
        "SamplesPerPixel": 1,
        "ScanOptions": "FS",
        "ScanningSequence": "EP",
        "SequenceName": "epfid2d1_104",
        "SequenceVariant": [
          "SK",
          "SS"
        ],
        "SeriesDescription": "cmrr_mbepi_s6_2mm_66sl_PA_task-prf",
        "SeriesNumber": 8,
        "SeriesTime": "115117.090000",
        "SliceLocation": -74.178812263387,
        "SliceThickness": 2.0,
        "SmallestImagePixelValue": 0,
        "SoftwareVersions": "syngo MR E11",
        "SpacingBetweenSlices": 1.9999999360599,
        "SpecificCharacterSet": "ISO_IR 100",
        "StudyID": "1",
        "StudyTime": "113034.259000",
        "TransmitCoilName": "Body",
        "VariableFlipAngleFlag": "N",
        "WindowCenterWidthExplanation": "Algo1",
        "dBdt": 0.0
      },
      "slices": {}
    },
    "modality": "bold",
    "run_id": 1,
    "session_id": "nyu3t01",
    "subject_id": "wlsubj092",
    "task_id": "prf",
    "time": {
      "samples": {
        "AcquisitionNumber": [
          1,
          2,
          3,
          4,
          5,
          6,
          7,
          8,
          9,
          10,
          11,
          12,
          13,
          14,
          15,
          16,
          17,
          18,
          19,
          20,
          21,
          22,
          23,
          24,
          25,
          26,
          27,
          28,
          29,
          30,
          31,
          32,
          33,
          34,
          35,
          36,
          37,
          38,
          39,
          40,
          41,
          42,
          43,
          44,
          45,
          46,
          47,
          48,
          49,
          50,
          51,
          52,
          53,
          54,
          55,
          56,
          57,
          58,
          59,
          60,
          61,
          62,
          63,
          64,
          65,
          66,
          67,
          68,
          69,
          70,
          71,
          72,
          73,
          74,
          75,
          76,
          77,
          78,
          79,
          80,
          81,
          82,
          83,
          84,
          85,
          86,
          87,
          88,
          89,
          90,
          91,
          92,
          93,
          94,
          95,
          96,
          97,
          98,
          99,
          100,
          101,
          102,
          103,
          104,
          105,
          106,
          107,
          108,
          109,
          110,
          111,
          112,
          113,
          114,
          115,
          116,
          117,
          118,
          119,
          120,
          121,
          122,
          123,
          124,
          125,
          126,
          127,
          128,
          129,
          130,
          131,
          132,
          133,
          134,
          135,
          136,
          137,
          138,
          139,
          140,
          141,
          142,
          143,
          144,
          145,
          146,
          147,
          148,
          149,
          150,
          151,
          152,
          153,
          154,
          155,
          156,
          157,
          158,
          159,
          160,
          161,
          162,
          163,
          164,
          165,
          166,
          167,
          168,
          169,
          170,
          171,
          172,
          173,
          174,
          175,
          176,
          177,
          178,
          179,
          180,
          181,
          182,
          183,
          184,
          185,
          186,
          187,
          188,
          189,
          190,
          191,
          192
        ],
        "AcquisitionTime": [
          "115003.427500",
          "115004.427500",
          "115005.427500",
          "115006.427500",
          "115007.427500",
          "115008.427500",
          "115009.427500",
          "115010.427500",
          "115011.427500",
          "115012.427500",
          "115013.427500",
          "115014.427500",
          "115015.427500",
          "115016.427500",
          "115017.427500",
          "115018.427500",
          "115019.427500",
          "115020.427500",
          "115021.427500",
          "115022.427500",
          "115023.427500",
          "115024.427500",
          "115025.427500",
          "115026.427500",
          "115027.427500",
          "115028.427500",
          "115029.427500",
          "115030.427500",
          "115031.427500",
          "115032.427500",
          "115033.427500",
          "115034.427500",
          "115035.427500",
          "115036.427500",
          "115037.427500",
          "115038.427500",
          "115039.427500",
          "115040.427500",
          "115041.427500",
          "115042.427500",
          "115043.427500",
          "115044.427500",
          "115045.427500",
          "115046.427500",
          "115047.427500",
          "115048.427500",
          "115049.427500",
          "115050.427500",
          "115051.427500",
          "115052.427500",
          "115053.427500",
          "115054.427500",
          "115055.427500",
          "115056.427500",
          "115057.427500",
          "115058.427500",
          "115059.427500",
          "115100.427500",
          "115101.427500",
          "115102.427500",
          "115103.427500",
          "115104.427500",
          "115105.427500",
          "115106.427500",
          "115107.427500",
          "115108.427500",
          "115109.427500",
          "115110.427500",
          "115111.427500",
          "115112.427500",
          "115113.427500",
          "115114.427500",
          "115115.427500",
          "115116.427500",
          "115117.427500",
          "115118.427500",
          "115119.427500",
          "115120.427500",
          "115121.427500",
          "115122.427500",
          "115123.427500",
          "115124.427500",
          "115125.427500",
          "115126.427500",
          "115127.427500",
          "115128.427500",
          "115129.427500",
          "115130.427500",
          "115131.427500",
          "115132.427500",
          "115133.427500",
          "115134.427500",
          "115135.427500",
          "115136.427500",
          "115137.427500",
          "115138.427500",
          "115139.427500",
          "115140.427500",
          "115141.427500",
          "115142.427500",
          "115143.427500",
          "115144.427500",
          "115145.427500",
          "115146.427500",
          "115147.427500",
          "115148.427500",
          "115149.427500",
          "115150.427500",
          "115151.427500",
          "115152.427500",
          "115153.427500",
          "115154.427500",
          "115155.427500",
          "115156.427500",
          "115157.427500",
          "115158.427500",
          "115159.427500",
          "115200.427500",
          "115201.427500",
          "115202.427500",
          "115203.427500",
          "115204.427500",
          "115205.427500",
          "115206.427500",
          "115207.427500",
          "115208.427500",
          "115209.427500",
          "115210.427500",
          "115211.427500",
          "115212.427500",
          "115213.427500",
          "115214.427500",
          "115215.427500",
          "115216.427500",
          "115217.427500",
          "115218.427500",
          "115219.427500",
          "115220.427500",
          "115221.427500",
          "115222.427500",
          "115223.427500",
          "115224.427500",
          "115225.427500",
          "115226.427500",
          "115227.427500",
          "115228.427500",
          "115229.427500",
          "115230.427500",
          "115231.427500",
          "115232.427500",
          "115233.427500",
          "115234.427500",
          "115235.427500",
          "115236.427500",
          "115237.427500",
          "115238.427500",
          "115239.427500",
          "115240.427500",
          "115241.427500",
          "115242.427500",
          "115243.427500",
          "115244.427500",
          "115245.427500",
          "115246.427500",
          "115247.427500",
          "115248.427500",
          "115249.427500",
          "115250.427500",
          "115251.427500",
          "115252.427500",
          "115253.427500",
          "115254.427500",
          "115255.427500",
          "115256.427500",
          "115257.427500",
          "115258.427500",
          "115259.427500",
          "115300.427500",
          "115301.427500",
          "115302.427500",
          "115303.427500",
          "115304.427500",
          "115305.427500",
          "115306.427500",
          "115307.427500",
          "115308.427500",
          "115309.427500",
          "115310.427500",
          "115311.427500",
          "115312.427500",
          "115313.427500",
          "115314.427500"
        ],
        "ContentTime": [
          "115117.093000",
          "115117.096000",
          "115117.099000",
          "115117.107000",
          "115117.109000",
          "115117.112000",
          "115117.115000",
          "115117.118000",
          "115117.121000",
          "115117.124000",
          "115117.127000",
          "115117.130000",
          "115117.132000",
          "115117.135000",
          "115117.144000",
          "115117.147000",
          "115117.150000",
          "115117.153000",
          "115117.156000",
          "115117.159000",
          "115117.162000",
          "115117.164000",
          "115117.167000",
          "115117.178000",
          "115117.181000",
          "115117.184000",
          "115137.065000",
          "115137.068000",
          "115137.071000",
          "115137.074000",
          "115137.077000",
          "115137.079000",
          "115137.082000",
          "115137.085000",
          "115137.088000",
          "115137.091000",
          "115137.094000",
          "115137.097000",
          "115137.100000",
          "115137.102000",
          "115137.105000",
          "115137.108000",
          "115137.111000",
          "115137.114000",
          "115137.117000",
          "115137.120000",
          "115137.123000",
          "115137.126000",
          "115137.128000",
          "115137.131000",
          "115137.135000",
          "115137.138000",
          "115137.140000",
          "115137.143000",
          "115157.065000",
          "115157.068000",
          "115157.071000",
          "115157.074000",
          "115157.077000",
          "115157.079000",
          "115157.082000",
          "115157.085000",
          "115157.088000",
          "115157.091000",
          "115157.094000",
          "115157.097000",
          "115157.100000",
          "115157.102000",
          "115157.105000",
          "115157.108000",
          "115157.111000",
          "115157.114000",
          "115157.117000",
          "115157.120000",
          "115157.123000",
          "115157.126000",
          "115157.128000",
          "115157.131000",
          "115157.134000",
          "115157.137000",
          "115157.140000",
          "115157.143000",
          "115157.146000",
          "115217.065000",
          "115217.068000",
          "115217.071000",
          "115217.074000",
          "115217.077000",
          "115217.079000",
          "115217.082000",
          "115217.085000",
          "115217.088000",
          "115217.091000",
          "115217.094000",
          "115217.097000",
          "115217.100000",
          "115217.102000",
          "115217.105000",
          "115217.108000",
          "115217.111000",
          "115217.114000",
          "115217.117000",
          "115217.120000",
          "115217.123000",
          "115217.126000",
          "115217.128000",
          "115217.131000",
          "115217.140000",
          "115217.143000",
          "115217.146000",
          "115217.149000",
          "115237.065000",
          "115237.068000",
          "115237.071000",
          "115237.074000",
          "115237.076000",
          "115237.079000",
          "115237.082000",
          "115237.085000",
          "115237.088000",
          "115237.091000",
          "115237.094000",
          "115237.097000",
          "115237.099000",
          "115237.102000",
          "115237.105000",
          "115237.108000",
          "115237.111000",
          "115237.114000",
          "115237.117000",
          "115237.120000",
          "115237.123000",
          "115237.126000",
          "115237.128000",
          "115237.131000",
          "115237.134000",
          "115237.137000",
          "115237.140000",
          "115237.143000",
          "115257.064000",
          "115257.067000",
          "115257.070000",
          "115257.073000",
          "115257.076000",
          "115257.079000",
          "115257.081000",
          "115257.084000",
          "115257.087000",
          "115257.090000",
          "115257.093000",
          "115257.096000",
          "115257.099000",
          "115257.102000",
          "115257.104000",
          "115257.107000",
          "115257.110000",
          "115257.113000",
          "115257.116000",
          "115257.119000",
          "115257.122000",
          "115257.125000",
          "115257.127000",
          "115257.130000",
          "115257.133000",
          "115257.136000",
          "115257.139000",
          "115257.142000",
          "115316.558000",
          "115316.561000",
          "115316.564000",
          "115316.567000",
          "115316.570000",
          "115316.573000",
          "115316.576000",
          "115316.579000",
          "115316.582000",
          "115316.585000",
          "115316.587000",
          "115316.590000",
          "115316.593000",
          "115316.596000",
          "115316.599000",
          "115316.602000",
          "115316.605000",
          "115316.608000",
          "115316.611000",
          "115316.613000",
          "115316.616000",
          "115316.619000",
          "115316.622000",
          "115316.625000",
          "115316.628000"
        ],
        "InstanceCreationTime": [
          "115117.093000",
          "115117.096000",
          "115117.099000",
          "115117.107000",
          "115117.109000",
          "115117.112000",
          "115117.115000",
          "115117.118000",
          "115117.121000",
          "115117.124000",
          "115117.127000",
          "115117.130000",
          "115117.132000",
          "115117.135000",
          "115117.144000",
          "115117.147000",
          "115117.150000",
          "115117.153000",
          "115117.156000",
          "115117.159000",
          "115117.162000",
          "115117.164000",
          "115117.167000",
          "115117.178000",
          "115117.181000",
          "115117.184000",
          "115137.065000",
          "115137.068000",
          "115137.071000",
          "115137.074000",
          "115137.077000",
          "115137.079000",
          "115137.082000",
          "115137.085000",
          "115137.088000",
          "115137.091000",
          "115137.094000",
          "115137.097000",
          "115137.100000",
          "115137.102000",
          "115137.105000",
          "115137.108000",
          "115137.111000",
          "115137.114000",
          "115137.117000",
          "115137.120000",
          "115137.123000",
          "115137.126000",
          "115137.128000",
          "115137.131000",
          "115137.135000",
          "115137.138000",
          "115137.140000",
          "115137.143000",
          "115157.065000",
          "115157.068000",
          "115157.071000",
          "115157.074000",
          "115157.077000",
          "115157.079000",
          "115157.082000",
          "115157.085000",
          "115157.088000",
          "115157.091000",
          "115157.094000",
          "115157.097000",
          "115157.100000",
          "115157.102000",
          "115157.105000",
          "115157.108000",
          "115157.111000",
          "115157.114000",
          "115157.117000",
          "115157.120000",
          "115157.123000",
          "115157.126000",
          "115157.128000",
          "115157.131000",
          "115157.134000",
          "115157.137000",
          "115157.140000",
          "115157.143000",
          "115157.146000",
          "115217.065000",
          "115217.068000",
          "115217.071000",
          "115217.074000",
          "115217.077000",
          "115217.079000",
          "115217.082000",
          "115217.085000",
          "115217.088000",
          "115217.091000",
          "115217.094000",
          "115217.097000",
          "115217.100000",
          "115217.102000",
          "115217.105000",
          "115217.108000",
          "115217.111000",
          "115217.114000",
          "115217.117000",
          "115217.120000",
          "115217.123000",
          "115217.126000",
          "115217.128000",
          "115217.131000",
          "115217.140000",
          "115217.143000",
          "115217.146000",
          "115217.149000",
          "115237.065000",
          "115237.068000",
          "115237.071000",
          "115237.074000",
          "115237.076000",
          "115237.079000",
          "115237.082000",
          "115237.085000",
          "115237.088000",
          "115237.091000",
          "115237.094000",
          "115237.097000",
          "115237.099000",
          "115237.102000",
          "115237.105000",
          "115237.108000",
          "115237.111000",
          "115237.114000",
          "115237.117000",
          "115237.120000",
          "115237.123000",
          "115237.126000",
          "115237.128000",
          "115237.131000",
          "115237.134000",
          "115237.137000",
          "115237.140000",
          "115237.143000",
          "115257.064000",
          "115257.067000",
          "115257.070000",
          "115257.073000",
          "115257.076000",
          "115257.079000",
          "115257.081000",
          "115257.084000",
          "115257.087000",
          "115257.090000",
          "115257.093000",
          "115257.096000",
          "115257.099000",
          "115257.102000",
          "115257.104000",
          "115257.107000",
          "115257.110000",
          "115257.113000",
          "115257.116000",
          "115257.119000",
          "115257.122000",
          "115257.125000",
          "115257.127000",
          "115257.130000",
          "115257.133000",
          "115257.136000",
          "115257.139000",
          "115257.142000",
          "115316.558000",
          "115316.561000",
          "115316.564000",
          "115316.567000",
          "115316.570000",
          "115316.573000",
          "115316.576000",
          "115316.579000",
          "115316.582000",
          "115316.585000",
          "115316.587000",
          "115316.590000",
          "115316.593000",
          "115316.596000",
          "115316.599000",
          "115316.602000",
          "115316.605000",
          "115316.608000",
          "115316.611000",
          "115316.613000",
          "115316.616000",
          "115316.619000",
          "115316.622000",
          "115316.625000",
          "115316.628000"
        ],
        "InstanceNumber": [
          1,
          2,
          3,
          4,
          5,
          6,
          7,
          8,
          9,
          10,
          11,
          12,
          13,
          14,
          15,
          16,
          17,
          18,
          19,
          20,
          21,
          22,
          23,
          24,
          25,
          26,
          27,
          28,
          29,
          30,
          31,
          32,
          33,
          34,
          35,
          36,
          37,
          38,
          39,
          40,
          41,
          42,
          43,
          44,
          45,
          46,
          47,
          48,
          49,
          50,
          51,
          52,
          53,
          54,
          55,
          56,
          57,
          58,
          59,
          60,
          61,
          62,
          63,
          64,
          65,
          66,
          67,
          68,
          69,
          70,
          71,
          72,
          73,
          74,
          75,
          76,
          77,
          78,
          79,
          80,
          81,
          82,
          83,
          84,
          85,
          86,
          87,
          88,
          89,
          90,
          91,
          92,
          93,
          94,
          95,
          96,
          97,
          98,
          99,
          100,
          101,
          102,
          103,
          104,
          105,
          106,
          107,
          108,
          109,
          110,
          111,
          112,
          113,
          114,
          115,
          116,
          117,
          118,
          119,
          120,
          121,
          122,
          123,
          124,
          125,
          126,
          127,
          128,
          129,
          130,
          131,
          132,
          133,
          134,
          135,
          136,
          137,
          138,
          139,
          140,
          141,
          142,
          143,
          144,
          145,
          146,
          147,
          148,
          149,
          150,
          151,
          152,
          153,
          154,
          155,
          156,
          157,
          158,
          159,
          160,
          161,
          162,
          163,
          164,
          165,
          166,
          167,
          168,
          169,
          170,
          171,
          172,
          173,
          174,
          175,
          176,
          177,
          178,
          179,
          180,
          181,
          182,
          183,
          184,
          185,
          186,
          187,
          188,
          189,
          190,
          191,
          192
        ],
        "LargestImagePixelValue": [
          29913,
          29167,
          29559,
          29920,
          29580,
          29543,
          30078,
          29449,
          29520,
          29801,
          29259,
          29467,
          30096,
          30190,
          29471,
          30196,
          29748,
          29963,
          30079,
          30469,
          30062,
          30462,
          30480,
          30121,
          30138,
          30903,
          30262,
          30201,
          30516,
          29844,
          29933,
          30651,
          29749,
          29898,
          30370,
          30234,
          29909,
          30420,
          29541,
          30167,
          30287,
          29516,
          29529,
          29894,
          30121,
          29414,
          29704,
          29745,
          29427,
          29438,
          29970,
          29566,
          29352,
          29921,
          29625,
          29920,
          30267,
          29366,
          29991,
          30189,
          29321,
          29967,
          29734,
          29752,
          30327,
          29977,
          30007,
          30042,
          29500,
          28865,
          29673,
          30474,
          30181,
          29479,
          29472,
          29752,
          29033,
          29906,
          29151,
          29471,
          29513,
          29629,
