{
  "aor": 0.0005680208333333334,
  "aqi": 0.00521564015625,
  "bids_meta": {
    "AcquisitionMatrixPE": 104,
    "AcquisitionNumber": 1,
    "AcquisitionTime": "11:58:12.462500",
    "BandwidthPerPixelPhaseEncode": 16.578,
    "BaseResolution": 104,
    "BodyPartExamined": "BRAIN",
    "CogAtlasID": "TODO",
    "ConsistencyInfo": "N4_VE11C_LATEST_20160120",
    "ConversionSoftware": "dcm2niix",
    "ConversionSoftwareVersion": "v1.0.20190902",
    "DerivedVendorReportedEchoSpacing": 0.000580009,
    "DeviceSerialNumber": "166018",
    "DwellTime": 2.1e-06,
    "EchoTime": 0.037,
    "EchoTrainLength": 104,
    "EffectiveEchoSpacing": 0.000580009,
    "FlipAngle": 68,
    "ImageComments": "Unaliased_MB6_PE3_LB",
    "ImageOrientationPatientDICOM": [
      0.996785,
      0.0233346,
      -0.076648,
      -0.0436949,
      0.960186,
      -0.275922
    ],
    "ImageType": [
      "ORIGINAL",
      "PRIMARY",
      "M",
      "MB",
      "ND",
      "MOSAIC"
    ],
    "ImagingFrequency": 123.191,
    "InPlanePhaseEncodingDirectionDICOM": "COL",
    "InstitutionAddress": "Washington_Place_6_NYC_NYC_US_10003",
    "InstitutionName": "NYU_Center_for_Brain_Imaging",
    "InstitutionalDepartmentName": "Department",
    "MRAcquisitionType": "2D",
    "MagneticFieldStrength": 3,
    "Manufacturer": "Siemens",
    "ManufacturersModelName": "Prisma",
    "Modality": "MR",
    "MultibandAccelerationFactor": 6,
    "NumberOfVolumes": 192,
    "PartialFourier": 1,
    "PatientPosition": "HFS",
    "PercentPhaseFOV": 100,
    "PhaseEncodingDirection": "j",
    "PhaseEncodingSteps": 104,
    "PhaseResolution": 1,
    "PixelBandwidth": 2290,
    "ProcedureStepDescription": "Investigators_Winawer",
    "ProtocolName": "cmrr_mbepi_s6_2mm_66sl_PA_task-prf",
    "PulseSequenceDetails": "%CustomerSeq%_cmrr_mbep2d_bold",
    "ReceiveCoilActiveElements": "HC1-7",
    "ReceiveCoilName": "HeadNeck_64",
    "ReconMatrixPE": 104,
    "RepetitionTime": 1,
    "SAR": 0.0663319,
    "ScanOptions": "FS",
    "ScanningSequence": "EP",
    "SequenceName": "epfid2d1_104",
    "SequenceVariant": "SK_SS",
    "SeriesDescription": "cmrr_mbepi_s6_2mm_66sl_PA_task-prf",
    "SeriesNumber": 12,
    "ShimSetting": [
      245,
      -12554,
      -8562,
      422,
      66,
      50,
      -219,
      -87
    ],
    "SliceThickness": 2,
    "SliceTiming": [
      0,
      0.5325,
      0.0875,
      0.6225,
      0.1775,
      0.7125,
      0.265,
      0.8,
      0.355,
      0.89,
      0.445,
      0,
      0.5325,
      0.0875,
      0.6225,
      0.1775,
      0.7125,
      0.265,
      0.8,
      0.355,
      0.89,
      0.445,
      0,
      0.5325,
      0.0875,
      0.6225,
      0.1775,
      0.7125,
      0.265,
      0.8,
      0.355,
      0.89,
      0.445,
      0,
      0.5325,
      0.0875,
      0.6225,
      0.1775,
      0.7125,
      0.265,
      0.8,
      0.355,
      0.89,
      0.445,
      0,
      0.5325,
      0.0875,
      0.6225,
      0.1775,
      0.7125,
      0.265,
      0.8,
      0.355,
      0.89,
      0.445,
      0,
      0.5325,
      0.0875,
      0.6225,
      0.1775,
      0.7125,
      0.265,
      0.8,
      0.355,
      0.89,
      0.445
    ],
    "SoftwareVersions": "syngo_MR_E11",
    "SpacingBetweenSlices": 2,
    "StationName": "AWP166018",
    "TaskName": "prf",
    "TotalReadoutTime": 0.0597409,
    "TxRefAmp": 213.971,
    "WipMemBlock": "f866c7b3-6c9a-41c3-99be-aca2006e3f08||Sequence: R016 ve11c/master r/8780670; Nov 27 2017 15:05:12 by eja",
    "acq_id": "PA",
    "dataset": "unknown",
    "dcmmeta_affine": [
      [
        -1.9935702085494995,
        -0.08738978207111359,
        -0.13431575894355774,
        114.13873291015625
      ],
      [
        -0.04666911065578461,
        1.9203726053237915,
        -0.556768536567688,
        -67.99539947509766
      ],
      [
        -0.15329609811306,
        0.5518444180488586,
        1.9162379503250122,
        -89.17717742919922
      ],
      [
        0.0,
        0.0,
        0.0,
        1.0
      ]
    ],
    "dcmmeta_reorient_transform": [
      [
        0.0,
        -1.0,
        0.0,
        103.0
      ],
      [
        1.0,
        0.0,
        0.0,
        0.0
      ],
      [
        0.0,
        0.0,
        1.0,
        0.0
      ],
      [
        0.0,
        0.0,
        0.0,
        1.0
      ]
    ],
    "dcmmeta_shape": [
      104,
      104,
      66,
      192
    ],
    "dcmmeta_slice_dim": 2,
    "dcmmeta_version": 0.6,
    "global": {
      "const": {
        "AccessionNumber": "ju9rrvrc",
        "AcquisitionMatrix": [
          104,
          0,
          0,
          104
        ],
        "AngioFlag": "N",
        "BitsAllocated": 16,
        "BitsStored": 16,
        "BodyPartExamined": "BRAIN",
        "Columns": 936,
        "EchoNumbers": 1,
        "EchoTime": 37.0,
        "EchoTrainLength": 104,
        "FlipAngle": 68.0,
        "HighBit": 15,
        "ImageOrientationPatient": [
          0.99678512002101,
          0.02333455517891,
          -0.0766480465459,
          -0.043694891442,
          0.96018628109348,
          -0.2759222029155
        ],
        "ImagePositionPatient": [
          -898.10865449242,
          -948.09230839976,
          261.00124452365
        ],
        "ImageType": [
          "ORIGINAL",
          "PRIMARY",
          "M",
          "MB",
          "ND",
          "MOSAIC"
        ],
        "ImagedNucleus": "1H",
        "ImagingFrequency": 123.191134,
        "InPlanePhaseEncodingDirection": "COL",
        "MRAcquisitionType": "2D",
        "MagneticFieldStrength": 3.0,
        "Manufacturer": "SIEMENS",
        "ManufacturerModelName": "Prisma",
        "Modality": "MR",
        "NumberOfAverages": 1.0,
        "NumberOfPhaseEncodingSteps": 104,
        "PercentPhaseFieldOfView": 100.0,
        "PercentSampling": 100.0,
        "PerformedProcedureStepStartTime": "113034.319000",
        "PhotometricInterpretation": "MONOCHROME2",
        "PixelBandwidth": 2290.0,
        "PixelRepresentation": 0,
        "PixelSpacing": [
          2.0,
          2.0
        ],
        "ProtocolName": "cmrr_mbepi_s6_2mm_66sl_PA_task-prf",
        "RepetitionTime": 1000.0,
        "Rows": 936,
        "SAR": 0.0663319482361,
        "SamplesPerPixel": 1,
        "ScanOptions": "FS",
        "ScanningSequence": "EP",
        "SequenceName": "epfid2d1_104",
        "SequenceVariant": [
          "SK",
          "SS"
        ],
        "SeriesDescription": "cmrr_mbepi_s6_2mm_66sl_PA_task-prf",
        "SeriesNumber": 12,
        "SeriesTime": "115937.043000",
        "SliceLocation": -74.178812263387,
        "SliceThickness": 2.0,
        "SmallestImagePixelValue": 0,
        "SoftwareVersions": "syngo MR E11",
        "SpacingBetweenSlices": 1.9999999360599,
        "SpecificCharacterSet": "ISO_IR 100",
        "StudyID": "1",
        "StudyTime": "113034.259000",
        "TransmitCoilName": "Body",
        "VariableFlipAngleFlag": "N",
        "WindowCenterWidthExplanation": "Algo1",
        "dBdt": 0.0
      },
      "slices": {}
    },
    "modality": "bold",
    "run_id": 3,
    "session_id": "nyu3t01",
    "subject_id": "wlsubj092",
    "task_id": "prf",
    "time": {
      "samples": {
        "AcquisitionNumber": [
          1,
          2,
          3,
          4,
          5,
          6,
          7,
          8,
          9,
          10,
          11,
          12,
          13,
          14,
          15,
          16,
          17,
          18,
          19,
          20,
          21,
          22,
          23,
          24,
          25,
          26,
          27,
          28,
          29,
          30,
          31,
          32,
          33,
          34,
          35,
          36,
          37,
          38,
          39,
          40,
          41,
          42,
          43,
          44,
          45,
          46,
          47,
          48,
          49,
          50,
          51,
          52,
          53,
          54,
          55,
          56,
          57,
          58,
          59,
          60,
          61,
          62,
          63,
          64,
          65,
          66,
          67,
          68,
          69,
          70,
          71,
          72,
          73,
          74,
          75,
          76,
          77,
          78,
          79,
          80,
          81,
          82,
          83,
          84,
          85,
          86,
          87,
          88,
          89,
          90,
          91,
          92,
          93,
          94,
          95,
          96,
          97,
          98,
          99,
          100,
          101,
          102,
          103,
          104,
          105,
          106,
          107,
          108,
          109,
          110,
          111,
          112,
          113,
          114,
          115,
          116,
          117,
          118,
          119,
          120,
          121,
          122,
          123,
          124,
          125,
          126,
          127,
          128,
          129,
          130,
          131,
          132,
          133,
          134,
          135,
          136,
          137,
          138,
          139,
          140,
          141,
          142,
          143,
          144,
          145,
          146,
          147,
          148,
          149,
          150,
          151,
          152,
          153,
          154,
          155,
          156,
          157,
          158,
          159,
          160,
          161,
          162,
          163,
          164,
          165,
          166,
          167,
          168,
          169,
          170,
          171,
          172,
          173,
          174,
          175,
          176,
          177,
          178,
          179,
          180,
          181,
          182,
          183,
          184,
          185,
          186,
          187,
          188,
          189,
          190,
          191,
          192
        ],
        "AcquisitionTime": [
          "115812.462500",
          "115813.462500",
          "115814.462500",
          "115815.462500",
          "115816.462500",
          "115817.462500",
          "115818.462500",
          "115819.462500",
          "115820.462500",
          "115821.462500",
          "115822.462500",
          "115823.462500",
          "115824.462500",
          "115825.462500",
          "115826.462500",
          "115827.462500",
          "115828.462500",
          "115829.462500",
          "115830.462500",
          "115831.462500",
          "115832.462500",
          "115833.462500",
          "115834.462500",
          "115835.462500",
          "115836.462500",
          "115837.462500",
          "115838.462500",
          "115839.462500",
          "115840.462500",
          "115841.462500",
          "115842.462500",
          "115843.462500",
          "115844.462500",
          "115845.462500",
          "115846.462500",
          "115847.462500",
          "115848.462500",
          "115849.462500",
          "115850.462500",
          "115851.462500",
          "115852.462500",
          "115853.462500",
          "115854.462500",
          "115855.462500",
          "115856.462500",
          "115857.462500",
          "115858.462500",
          "115859.462500",
          "115900.462500",
          "115901.462500",
          "115902.462500",
          "115903.462500",
          "115904.462500",
          "115905.462500",
          "115906.462500",
          "115907.462500",
          "115908.462500",
          "115909.462500",
          "115910.462500",
          "115911.462500",
          "115912.462500",
          "115913.462500",
          "115914.462500",
          "115915.462500",
          "115916.462500",
          "115917.462500",
          "115918.462500",
          "115919.462500",
          "115920.462500",
          "115921.462500",
          "115922.462500",
          "115923.462500",
          "115924.462500",
          "115925.462500",
          "115926.462500",
          "115927.462500",
          "115928.462500",
          "115929.462500",
          "115930.462500",
          "115931.462500",
          "115932.462500",
          "115933.462500",
          "115934.462500",
          "115935.462500",
          "115936.462500",
          "115937.462500",
          "115938.462500",
          "115939.462500",
          "115940.462500",
          "115941.462500",
          "115942.462500",
          "115943.462500",
          "115944.462500",
          "115945.462500",
          "115946.462500",
          "115947.462500",
          "115948.462500",
          "115949.462500",
          "115950.462500",
          "115951.462500",
          "115952.462500",
          "115953.462500",
          "115954.462500",
          "115955.462500",
          "115956.462500",
          "115957.462500",
          "115958.462500",
          "115959.462500",
          "120000.462500",
          "120001.462500",
          "120002.462500",
          "120003.462500",
          "120004.462500",
          "120005.462500",
          "120006.462500",
          "120007.462500",
          "120008.462500",
          "120009.462500",
          "120010.462500",
          "120011.462500",
          "120012.462500",
          "120013.462500",
          "120014.462500",
          "120015.462500",
          "120016.462500",
          "120017.462500",
          "120018.462500",
          "120019.462500",
          "120020.462500",
          "120021.462500",
          "120022.462500",
          "120023.462500",
          "120024.462500",
          "120025.462500",
          "120026.462500",
          "120027.462500",
          "120028.462500",
          "120029.462500",
          "120030.462500",
          "120031.462500",
          "120032.462500",
          "120033.462500",
          "120034.462500",
          "120035.462500",
          "120036.462500",
          "120037.462500",
          "120038.462500",
          "120039.462500",
          "120040.462500",
          "120041.462500",
          "120042.462500",
          "120043.462500",
          "120044.462500",
          "120045.462500",
          "120046.462500",
          "120047.462500",
          "120048.462500",
          "120049.462500",
          "120050.462500",
          "120051.462500",
          "120052.462500",
          "120053.462500",
          "120054.462500",
          "120055.462500",
          "120056.462500",
          "120057.462500",
          "120058.462500",
          "120059.462500",
          "120100.462500",
          "120101.462500",
          "120102.462500",
          "120103.462500",
          "120104.462500",
          "120105.462500",
          "120106.462500",
          "120107.462500",
          "120108.462500",
          "120109.462500",
          "120110.462500",
          "120111.462500",
          "120112.462500",
          "120113.462500",
          "120114.462500",
          "120115.462500",
          "120116.462500",
          "120117.462500",
          "120118.462500",
          "120119.462500",
          "120120.462500",
          "120121.462500",
          "120122.462500",
          "120123.462500"
        ],
        "ContentTime": [
          "115937.046000",
          "115937.050000",
          "115937.053000",
          "115937.055000",
          "115937.058000",
          "115937.061000",
          "115937.064000",
          "115937.067000",
          "115937.070000",
          "115937.073000",
          "115937.076000",
          "115937.079000",
          "115937.082000",
          "115937.085000",
          "115937.088000",
          "115937.090000",
          "115937.093000",
          "115937.102000",
          "115937.105000",
          "115937.108000",
          "115937.111000",
          "115937.114000",
          "115937.117000",
          "115937.119000",
          "115937.122000",
          "115937.125000",
          "115937.128000",
          "115937.131000",
          "115937.134000",
          "115937.137000",
          "115937.140000",
          "115937.142000",
          "115937.145000",
          "115937.148000",
          "115937.151000",
          "115937.154000",
          "115937.157000",
          "115937.160000",
          "115937.163000",
          "115937.166000",
          "115956.993000",
          "115956.996000",
          "115957.000000",
          "115957.003000",
          "115957.006000",
          "115957.008000",
          "115957.011000",
          "115957.014000",
          "115957.017000",
          "115957.020000",
          "115957.023000",
          "115957.026000",
          "115957.029000",
          "115957.036000",
          "115957.039000",
          "115957.042000",
          "115957.045000",
          "115957.048000",
          "115957.051000",
          "115957.054000",
          "115957.057000",
          "115957.059000",
          "115957.062000",
          "115957.065000",
          "115957.068000",
          "115957.071000",
          "115957.074000",
          "115957.077000",
          "115957.080000",
          "120016.993000",
          "120016.996000",
          "120017.000000",
          "120017.003000",
          "120017.006000",
          "120017.009000",
          "120017.012000",
          "120017.014000",
          "120017.017000",
          "120017.020000",
          "120017.023000",
          "120017.026000",
          "120017.029000",
          "120017.032000",
          "120017.035000",
          "120017.044000",
          "120017.047000",
          "120017.050000",
          "120017.053000",
          "120017.055000",
          "120017.058000",
          "120017.061000",
          "120017.064000",
          "120017.067000",
          "120017.070000",
          "120017.073000",
          "120017.076000",
          "120017.079000",
          "120036.994000",
          "120036.997000",
          "120037.001000",
          "120037.004000",
          "120037.007000",
          "120037.010000",
          "120037.013000",
          "120037.015000",
          "120037.018000",
          "120037.021000",
          "120037.024000",
          "120037.027000",
          "120037.030000",
          "120037.033000",
          "120037.036000",
          "120037.039000",
          "120037.042000",
          "120037.044000",
          "120037.047000",
          "120037.050000",
          "120037.053000",
          "120037.056000",
          "120037.059000",
          "120037.062000",
          "120037.065000",
          "120037.068000",
          "120037.071000",
          "120037.074000",
          "120056.994000",
          "120056.997000",
          "120057.001000",
          "120057.004000",
          "120057.007000",
          "120057.010000",
          "120057.012000",
          "120057.015000",
          "120057.018000",
          "120057.021000",
          "120057.024000",
          "120057.027000",
          "120057.030000",
          "120057.033000",
          "120057.036000",
          "120057.039000",
          "120057.041000",
          "120057.044000",
          "120057.047000",
          "120057.050000",
          "120057.053000",
          "120057.056000",
          "120057.059000",
          "120057.062000",
          "120057.065000",
          "120057.068000",
          "120057.070000",
          "120057.073000",
          "120116.994000",
          "120116.997000",
          "120117.001000",
          "120117.004000",
          "120117.007000",
          "120117.010000",
          "120117.012000",
          "120117.015000",
          "120117.018000",
          "120117.021000",
          "120117.024000",
          "120117.027000",
          "120117.030000",
          "120117.033000",
          "120117.036000",
          "120117.039000",
          "120117.042000",
          "120117.045000",
          "120117.047000",
          "120117.050000",
          "120117.053000",
          "120117.056000",
          "120117.059000",
          "120117.062000",
          "120117.065000",
          "120117.068000",
          "120117.071000",
          "120117.074000",
          "120124.970000",
          "120124.973000",
          "120124.976000",
          "120124.979000",
          "120124.982000",
          "120124.985000",
          "120124.988000",
          "120124.991000",
          "120124.993000",
          "120124.996000",
          "120125.000000"
        ],
        "InstanceCreationTime": [
          "115937.046000",
          "115937.050000",
          "115937.053000",
          "115937.055000",
          "115937.058000",
          "115937.061000",
          "115937.064000",
          "115937.067000",
          "115937.070000",
          "115937.073000",
          "115937.076000",
          "115937.079000",
          "115937.082000",
          "115937.085000",
          "115937.088000",
          "115937.090000",
          "115937.093000",
          "115937.102000",
          "115937.105000",
          "115937.108000",
          "115937.111000",
          "115937.114000",
          "115937.117000",
          "115937.119000",
          "115937.122000",
          "115937.125000",
          "115937.128000",
          "115937.131000",
          "115937.134000",
          "115937.137000",
          "115937.140000",
          "115937.142000",
          "115937.145000",
          "115937.148000",
          "115937.151000",
          "115937.154000",
          "115937.157000",
          "115937.160000",
          "115937.163000",
          "115937.166000",
          "115956.993000",
          "115956.996000",
          "115957.000000",
          "115957.003000",
          "115957.006000",
          "115957.008000",
          "115957.011000",
          "115957.014000",
          "115957.017000",
          "115957.020000",
          "115957.023000",
          "115957.026000",
          "115957.029000",
          "115957.036000",
          "115957.039000",
          "115957.042000",
          "115957.045000",
          "115957.048000",
          "115957.051000",
          "115957.054000",
          "115957.057000",
          "115957.059000",
          "115957.062000",
          "115957.065000",
          "115957.068000",
          "115957.071000",
          "115957.074000",
          "115957.077000",
          "115957.080000",
          "120016.993000",
          "120016.996000",
          "120017.000000",
          "120017.003000",
          "120017.006000",
          "120017.009000",
          "120017.012000",
          "120017.014000",
          "120017.017000",
          "120017.020000",
          "120017.023000",
          "120017.026000",
          "120017.029000",
          "120017.032000",
          "120017.035000",
          "120017.044000",
          "120017.047000",
          "120017.050000",
          "120017.053000",
          "120017.055000",
          "120017.058000",
          "120017.061000",
          "120017.064000",
          "120017.067000",
          "120017.070000",
          "120017.073000",
          "120017.076000",
          "120017.079000",
          "120036.994000",
          "120036.997000",
          "120037.001000",
          "120037.004000",
          "120037.007000",
          "120037.010000",
          "120037.013000",
          "120037.015000",
          "120037.018000",
          "120037.021000",
          "120037.024000",
          "120037.027000",
          "120037.030000",
          "120037.033000",
          "120037.036000",
          "120037.039000",
          "120037.042000",
          "120037.044000",
          "120037.047000",
          "120037.050000",
          "120037.053000",
          "120037.056000",
          "120037.059000",
          "120037.062000",
          "120037.065000",
          "120037.068000",
          "120037.071000",
          "120037.074000",
          "120056.994000",
          "120056.997000",
          "120057.001000",
          "120057.004000",
          "120057.007000",
          "120057.010000",
          "120057.012000",
          "120057.015000",
          "120057.018000",
          "120057.021000",
          "120057.024000",
          "120057.027000",
          "120057.030000",
          "120057.033000",
          "120057.036000",
          "120057.039000",
          "120057.041000",
          "120057.044000",
          "120057.047000",
          "120057.050000",
          "120057.053000",
          "120057.056000",
          "120057.059000",
          "120057.062000",
          "120057.065000",
          "120057.068000",
          "120057.070000",
          "120057.073000",
          "120116.994000",
          "120116.997000",
          "120117.001000",
          "120117.004000",
          "120117.007000",
          "120117.010000",
          "120117.012000",
          "120117.015000",
          "120117.018000",
          "120117.021000",
          "120117.024000",
          "120117.027000",
          "120117.030000",
          "120117.033000",
          "120117.036000",
          "120117.039000",
          "120117.042000",
          "120117.045000",
          "120117.047000",
          "120117.050000",
          "120117.053000",
          "120117.056000",
          "120117.059000",
          "120117.062000",
          "120117.065000",
          "120117.068000",
          "120117.071000",
          "120117.074000",
          "120124.970000",
          "120124.973000",
          "120124.976000",
          "120124.979000",
          "120124.982000",
          "120124.985000",
          "120124.988000",
          "120124.991000",
          "120124.993000",
          "120124.996000",
          "120125.000000"
        ],
        "InstanceNumber": [
          1,
          2,
          3,
          4,
          5,
          6,
          7,
          8,
          9,
          10,
          11,
          12,
          13,
          14,
          15,
          16,
          17,
          18,
          19,
          20,
          21,
          22,
          23,
          24,
          25,
          26,
          27,
          28,
          29,
          30,
          31,
          32,
          33,
          34,
          35,
          36,
          37,
          38,
          39,
          40,
          41,
          42,
          43,
          44,
          45,
          46,
          47,
          48,
          49,
          50,
          51,
          52,
          53,
          54,
          55,
          56,
          57,
          58,
          59,
          60,
          61,
          62,
          63,
          64,
          65,
          66,
          67,
          68,
          69,
          70,
          71,
          72,
          73,
          74,
          75,
          76,
          77,
          78,
          79,
          80,
          81,
          82,
          83,
          84,
          85,
          86,
          87,
          88,
          89,
          90,
          91,
          92,
          93,
          94,
          95,
          96,
          97,
          98,
          99,
          100,
          101,
          102,
          103,
          104,
          105,
          106,
          107,
          108,
          109,
          110,
          111,
          112,
          113,
          114,
          115,
          116,
          117,
          118,
          119,
          120,
          121,
          122,
          123,
          124,
          125,
          126,
          127,
          128,
          129,
          130,
          131,
          132,
          133,
          134,
          135,
          136,
          137,
          138,
          139,
          140,
          141,
          142,
          143,
          144,
          145,
          146,
          147,
          148,
          149,
          150,
          151,
          152,
          153,
          154,
          155,
          156,
          157,
          158,
          159,
          160,
          161,
          162,
          163,
          164,
          165,
          166,
          167,
          168,
          169,
          170,
          171,
          172,
          173,
          174,
          175,
          176,
          177,
          178,
          179,
          180,
          181,
          182,
          183,
          184,
          185,
          186,
          187,
          188,
          189,
          190,
          191,
          192
        ],
        "LargestImagePixelValue": [
          29982,
          29759,
          29610,
          30103,
          29526,
          29741,
          29135,
          29318,
          29532,
          29684,
          29850,
          29719,
          29741,
          29790,
          29574,
          29657,
          29963,
          30010,
          30270,
          30384,
          30295,
          30024,
          30165,
          29794,
          29564,
          29882,
          29824,
          29692,
          29540,
          29676,
          29738,
          29703,
          29488,
          29715,
          29977,
          29827,
          30193,
          30139,
          29843,
          30148,
          30243,
          29623,
          30055,
          29852,
          29597,
          29843,
          29599,
          29562,
          29444,
          29204,
          29365,
          29609,
          29593,
          29712,
          29241,
          29494,
          29850,
          29598,
          29642,
          29418,
          29678,
          29583,
          29790,
          30124,
          29596,
          29567,
          30407,
          30209,
          29934,
          30372,
          29960,
          29463,
          29793,
          29552,
          29634,
          29959,
          29569,
          29652,
          29800,
          29493,
          29698,
          29878,
          29425,
