{
  "AcquisitionMatrixPE": 104,
  "AcquisitionNumber": 1,
  "AcquisitionTime": "15:43:36.465000",
  "BandwidthPerPixelPhaseEncode": 16.578,
  "BaseResolution": 104,
  "BodyPartExamined": "BRAIN",
  "ConsistencyInfo": "N4_VE11C_LATEST_20160120",
  "ConversionSoftware": "dcm2niix",
  "ConversionSoftwareVersion": "v1.0.20190902",
  "DerivedVendorReportedEchoSpacing": 0.000580009,
  "DeviceSerialNumber": "166018",
  "DwellTime": 2.1e-06,
  "EchoTime": 0.037,
  "EchoTrainLength": 104,
  "EffectiveEchoSpacing": 0.000580009,
  "FlipAngle": 68,
  "ImageComments": "Unaliased_MB6_PE3_LB",
  "ImageOrientationPatientDICOM": [0.998756, 0.0349869, 0.0355412, -0.0245835, 0.965421, -0.259534],
  "ImageType": [
    "ORIGINAL",
    "PRIMARY",
    "M",
    "MB",
    "ND",
    "MOSAIC"
],
  "ImagingFrequency": 123.191,
  "InPlanePhaseEncodingDirectionDICOM": "COL",
  "InstitutionAddress": "Washington_Place_6_NYC_NYC_US_10003",
  "InstitutionName": "NYU_-_CBI",
  "InstitutionalDepartmentName": "Department",
  "MRAcquisitionType": "2D",
  "MagneticFieldStrength": 3,
  "Manufacturer": "Siemens",
  "ManufacturersModelName": "Prisma",
  "Modality": "MR",
  "MultibandAccelerationFactor": 6,
  "PartialFourier": 1,
  "PatientPosition": "HFS",
  "PercentPhaseFOV": 100,
  "PhaseEncodingDirection": "j",
  "PhaseEncodingSteps": 104,
  "PhaseResolution": 1,
  "PixelBandwidth": 2290,
  "ProcedureStepDescription": "Investigators_Winawer",
  "ProtocolName": "cmrr_mbepi_s6_2mm_66sl_PA_task-prf",
  "PulseSequenceDetails": "%CustomerSeq%_cmrr_mbep2d_bold",
  "ReceiveCoilActiveElements": "HC1-7",
  "ReceiveCoilName": "HeadNeck_64",
  "ReconMatrixPE": 104,
  "RepetitionTime": 1,
  "SAR": 0.0682376,
  "ScanOptions": "FS",
  "ScanningSequence": "EP",
  "SequenceName": "epfid2d1_104",
  "SequenceVariant": "SK_SS",
  "SeriesDescription": "cmrr_mbepi_s6_2mm_66sl_PA_task-prf",
  "SeriesNumber": 20,
  "ShimSetting": [268, -12683, -8479, 684, 27, -214, 121, -31],
  "SliceThickness": 2,
  "SliceTiming": [0, 0.5325, 0.0875, 0.6225, 0.1775, 0.7125, 0.2675, 0.8, 0.355, 0.89, 0.445, 0, 0.5325, 0.0875, 0.6225, 0.1775, 0.7125, 0.2675, 0.8, 0.355, 0.89, 0.445, 0, 0.5325, 0.0875, 0.6225, 0.1775, 0.7125, 0.2675, 0.8, 0.355, 0.89, 0.445, 0, 0.5325, 0.0875, 0.6225, 0.1775, 0.7125, 0.2675, 0.8, 0.355, 0.89, 0.445, 0, 0.5325, 0.0875, 0.6225, 0.1775, 0.7125, 0.2675, 0.8, 0.355, 0.89, 0.445, 0, 0.5325, 0.0875, 0.6225, 0.1775, 0.7125, 0.2675, 0.8, 0.355, 0.89, 0.445],
  "SoftwareVersions": "syngo_MR_E11",
  "SpacingBetweenSlices": 2,
  "StationName": "AWP166018",
  "TaskName": "prf",
  "TotalReadoutTime": 0.0597409,
  "TxRefAmp": 229.983,
  "WipMemBlock": "7816fbbd-ffcb-42cb-9261-1e5f55231595||Sequence: R016 ve11c/master r/8780670; Nov 27 2017 15:05:12 by eja",
  "dcmmeta_affine": [
    [-1.9975111484527588, -0.049167003482580185, 0.08678508549928665, 109.34681701660156],
    [-0.06997379660606384, 1.9308418035507202, -0.5166755318641663, -70.97101593017578],
    [0.07108244299888611, 0.5190688967704773, 1.930159330368042, -93.14346313476562],
    [0.0, 0.0, 0.0, 1.0]
],
  "dcmmeta_reorient_transform": [
    [0.0, -1.0, 0.0, 103.0],
    [1.0, 0.0, 0.0, 0.0],
    [0.0, 0.0, 1.0, 0.0],
    [0.0, 0.0, 0.0, 1.0]
],
  "dcmmeta_shape": [104, 104, 66, 192],
  "dcmmeta_slice_dim": 2,
  "dcmmeta_version": 0.6,
  "global": {
    "const": {
      "AccessionNumber": "JU45L8EW",
      "AcquisitionMatrix": [104, 0, 0, 104],
      "AngioFlag": "N",
      "BitsAllocated": 16,
      "BitsStored": 16,
      "BodyPartExamined": "BRAIN",
      "Columns": 936,
      "EchoNumbers": 1,
      "EchoTime": 37.0,
      "EchoTrainLength": 104,
      "FlipAngle": 68.0,
      "HighBit": 15,
      "ImageOrientationPatient": [0.9987555950964, 0.03498689668548, 0.0355412200685, -0.0245835026138, 0.9654209056492, -0.2595344415193],
      "ImagePositionPatient": [-914.79379542357, -960.24497851321, 146.68298868247],
      "ImageType": [
        "ORIGINAL",
        "PRIMARY",
        "M",
        "MB",
        "ND",
        "MOSAIC"
],
      "ImagedNucleus": "1H",
      "ImagingFrequency": 123.190971,
      "InPlanePhaseEncodingDirection": "COL",
      "MRAcquisitionType": "2D",
      "MagneticFieldStrength": 3.0,
      "Manufacturer": "SIEMENS",
      "ManufacturerModelName": "Prisma",
      "Modality": "MR",
      "NumberOfAverages": 1.0,
      "NumberOfPhaseEncodingSteps": 104,
      "PercentPhaseFieldOfView": 100.0,
      "PercentSampling": 100.0,
      "PerformedProcedureStepStartTime": "151256.218000",
      "PhotometricInterpretation": "MONOCHROME2",
      "PixelBandwidth": 2290.0,
      "PixelRepresentation": 0,
      "PixelSpacing": [2.0, 2.0],
      "ProtocolName": "cmrr_mbepi_s6_2mm_66sl_PA_task-prf",
      "RepetitionTime": 1000.0,
      "Rows": 936,
      "SAR": 0.06823761511738,
      "SamplesPerPixel": 1,
      "ScanOptions": "FS",
      "ScanningSequence": "EP",
      "SequenceName": "epfid2d1_104",
      "SequenceVariant": [
        "SK",
        "SS"
],
      "SeriesDescription": "cmrr_mbepi_s6_2mm_66sl_PA_task-prf",
      "SeriesNumber": 20,
      "SeriesTime": "154432.165000",
      "SliceLocation": -66.811532726435,
      "SliceThickness": 2.0,
      "SmallestImagePixelValue": 0,
      "SoftwareVersions": "syngo MR E11",
      "SpacingBetweenSlices": 2.00000002525,
      "SpecificCharacterSet": "ISO_IR 100",
      "StudyID": "1",
      "StudyTime": "151256.169000",
      "TransmitCoilName": "Body",
      "VariableFlipAngleFlag": "N",
      "WindowCenterWidthExplanation": "Algo1",
      "dBdt": 0.0},
    "slices": {}
  },
  "time": {
    "samples": {
      "AcquisitionNumber": [1, 2, 3, 4, 5, 6, 7, 8, 9, 10, 11, 12, 13, 14, 15, 16, 17, 18, 19, 20, 21, 22, 23, 24, 25, 26, 27, 28, 29, 30, 31, 32, 33, 34, 35, 36, 37, 38, 39, 40, 41, 42, 43, 44, 45, 46, 47, 48, 49, 50, 51, 52, 53, 54, 55, 56, 57, 58, 59, 60, 61, 62, 63, 64, 65, 66, 67, 68, 69, 70, 71, 72, 73, 74, 75, 76, 77, 78, 79, 80, 81, 82, 83, 84, 85, 86, 87, 88, 89, 90, 91, 92, 93, 94, 95, 96, 97, 98, 99, 100, 101, 102, 103, 104, 105, 106, 107, 108, 109, 110, 111, 112, 113, 114, 115, 116, 117, 118, 119, 120, 121, 122, 123, 124, 125, 126, 127, 128, 129, 130, 131, 132, 133, 134, 135, 136, 137, 138, 139, 140, 141, 142, 143, 144, 145, 146, 147, 148, 149, 150, 151, 152, 153, 154, 155, 156, 157, 158, 159, 160, 161, 162, 163, 164, 165, 166, 167, 168, 169, 170, 171, 172, 173, 174, 175, 176, 177, 178, 179, 180, 181, 182, 183, 184, 185, 186, 187, 188, 189, 190, 191, 192],
      "AcquisitionTime": ["154336.465000", "154337.465000", "154338.465000", "154339.465000", "154340.465000", "154341.465000", "154342.465000", "154343.465000", "154344.465000", "154345.465000", "154346.465000", "154347.465000", "154348.465000", "154349.465000", "154350.465000", "154351.465000", "154352.465000", "154353.465000", "154354.465000", "154355.465000", "154356.465000", "154357.465000", "154358.465000", "154359.465000", "154400.465000", "154401.465000", "154402.465000", "154403.465000", "154404.465000", "154405.465000", "154406.465000", "154407.465000", "154408.465000", "154409.465000", "154410.465000", "154411.465000", "154412.465000", "154413.465000", "154414.465000", "154415.465000", "154416.465000", "154417.465000", "154418.465000", "154419.465000", "154420.465000", "154421.465000", "154422.465000", "154423.465000", "154424.465000", "154425.465000", "154426.465000", "154427.465000", "154428.465000", "154429.465000", "154430.465000", "154431.465000", "154432.465000", "154433.465000", "154434.465000", "154435.465000", "154436.465000", "154437.465000", "154438.465000", "154439.465000", "154440.465000", "154441.465000", "154442.465000", "154443.465000", "154444.465000", "154445.465000", "154446.465000", "154447.465000", "154448.465000", "154449.465000", "154450.465000", "154451.465000", "154452.465000", "154453.465000", "154454.465000", "154455.465000", "154456.465000", "154457.465000", "154458.465000", "154459.465000", "154500.465000", "154501.465000", "154502.465000", "154503.465000", "154504.465000", "154505.465000", "154506.465000", "154507.465000", "154508.465000", "154509.465000", "154510.465000", "154511.465000", "154512.465000", "154513.465000", "154514.465000", "154515.465000", "154516.465000", "154517.465000", "154518.465000", "154519.465000", "154520.465000", "154521.465000", "154522.465000", "154523.465000", "154524.465000", "154525.465000", "154526.465000", "154527.465000", "154528.465000", "154529.465000", "154530.465000", "154531.465000", "154532.465000", "154533.465000", "154534.465000", "154535.465000", "154536.465000", "154537.465000", "154538.465000", "154539.465000", "154540.465000", "154541.465000", "154542.465000", "154543.465000", "154544.465000", "154545.465000", "154546.465000", "154547.465000", "154548.465000", "154549.465000", "154550.465000", "154551.465000", "154552.465000", "154553.465000", "154554.465000", "154555.465000", "154556.465000", "154557.465000", "154558.465000", "154559.465000", "154600.465000", "154601.465000", "154602.465000", "154603.465000", "154604.465000", "154605.465000", "154606.465000", "154607.465000", "154608.465000", "154609.465000", "154610.465000", "154611.465000", "154612.465000", "154613.465000", "154614.465000", "154615.465000", "154616.465000", "154617.465000", "154618.465000", "154619.465000", "154620.465000", "154621.465000", "154622.465000", "154623.465000", "154624.465000", "154625.465000", "154626.465000", "154627.465000", "154628.465000", "154629.465000", "154630.465000", "154631.465000", "154632.465000", "154633.465000", "154634.465000", "154635.465000", "154636.465000", "154637.465000", "154638.465000", "154639.465000", "154640.465000", "154641.465000", "154642.465000", "154643.465000", "154644.465000", "154645.465000", "154646.465000", "154647.465000"],
      "ContentTime": ["154432.167000", "154437.127000", "154437.130000", "154437.133000", "154437.141000", "154437.144000", "154437.147000", "154437.164000", "154442.127000", "154442.130000", "154442.133000", "154442.141000", "154442.144000", "154442.146000", "154442.149000", "154447.127000", "154447.130000", "154447.143000", "154447.146000", "154447.149000", "154447.158000", "154447.161000", "154452.128000", "154452.131000", "154452.134000", "154452.137000", "154452.140000", "154452.143000", "154452.146000", "154457.127000", "154457.130000", "154457.133000", "154457.136000", "154457.138000", "154457.141000", "154457.144000", "154502.127000", "154502.130000", "154502.133000", "154502.136000", "154502.149000", "154502.152000", "154502.155000", "154502.158000", "154507.127000", "154507.130000", "154507.133000", "154507.136000", "154507.138000", "154507.141000", "154507.144000", "154512.127000", "154512.130000", "154512.133000", "154512.135000", "154512.138000", "154512.141000", "154512.144000", "154517.127000", "154517.130000", "154517.133000", "154517.136000", "154517.139000", "154517.142000", "154517.144000", "154522.127000", "154522.130000", "154522.132000", "154522.135000", "154522.138000", "154522.141000", "154522.144000", "154527.128000", "154527.131000", "154527.134000", "154527.137000", "154527.140000", "154527.142000", "154527.145000", "154532.127000", "154532.130000", "154532.133000", "154532.136000", "154532.140000", "154532.142000", "154532.145000", "154537.127000", "154537.130000", "154537.133000", "154537.136000", "154537.138000", "154537.141000", "154537.144000", "154542.127000", "154542.130000", "154542.133000", "154542.136000", "154542.139000", "154542.141000", "154542.144000", "154547.127000", "154547.130000", "154547.133000", "154547.136000", "154547.154000", "154547.157000", "154547.160000", "154552.127000", "154552.130000", "154552.133000", "154552.136000", "154552.139000", "154552.142000", "154552.144000", "154557.127000", "154557.130000", "154557.133000", "154557.136000", "154557.139000", "154557.142000", "154557.144000", "154602.128000", "154602.131000", "154602.134000", "154602.137000", "154602.140000", "154602.142000", "154602.145000", "154607.127000", "154607.130000", "154607.133000", "154607.136000", "154607.139000", "154607.141000", "154607.144000", "154612.127000", "154612.130000", "154612.133000", "154612.136000", "154612.139000", "154612.141000", "154612.144000", "154617.127000", "154617.130000", "154617.133000", "154617.136000", "154617.139000", "154617.141000", "154617.144000", "154622.127000", "154622.130000", "154622.133000", "154622.135000", "154622.138000", "154622.141000", "154622.144000", "154627.127000", "154627.130000", "154627.133000", "154627.136000", "154627.139000", "154627.142000", "154627.144000", "154632.127000", "154632.130000", "154632.133000", "154632.136000", "154632.138000", "154632.141000", "154632.144000", "154637.128000", "154637.131000", "154637.134000", "154637.137000", "154637.140000", "154637.143000", "154637.145000", "154637.148000", "154642.127000", "154642.130000", "154642.133000", "154642.136000", "154642.138000", "154642.141000", "154647.127000", "154647.130000", "154647.133000", "154647.136000", "154647.139000", "154649.484000", "154649.488000", "154649.490000"],
      "InstanceCreationTime": ["154432.167000", "154437.127000", "154437.130000", "154437.133000", "154437.141000", "154437.144000", "154437.147000", "154437.164000", "154442.127000", "154442.130000", "154442.133000", "154442.141000", "154442.144000", "154442.146000", "154442.149000", "154447.127000", "154447.130000", "154447.143000", "154447.146000", "154447.149000", "154447.158000", "154447.161000", "154452.128000", "154452.131000", "154452.134000", "154452.137000", "154452.140000", "154452.143000", "154452.146000", "154457.127000", "154457.130000", "154457.133000", "154457.136000", "154457.138000", "154457.141000", "154457.144000", "154502.127000", "154502.130000", "154502.133000", "154502.136000", "154502.149000", "154502.152000", "154502.155000", "154502.158000", "154507.127000", "154507.130000", "154507.133000", "154507.136000", "154507.138000", "154507.141000", "154507.144000", "154512.127000", "154512.130000", "154512.133000", "154512.135000", "154512.138000", "154512.141000", "154512.144000", "154517.127000", "154517.130000", "154517.133000", "154517.136000", "154517.139000", "154517.142000", "154517.144000", "154522.127000", "154522.130000", "154522.132000", "154522.135000", "154522.138000", "154522.141000", "154522.144000", "154527.128000", "154527.131000", "154527.134000", "154527.137000", "154527.140000", "154527.142000", "154527.145000", "154532.127000", "154532.130000", "154532.133000", "154532.136000", "154532.140000", "154532.142000", "154532.145000", "154537.127000", "154537.130000", "154537.133000", "154537.136000", "154537.138000", "154537.141000", "154537.144000", "154542.127000", "154542.130000", "154542.133000", "154542.136000", "154542.139000", "154542.141000", "154542.144000", "154547.127000", "154547.130000", "154547.133000", "154547.136000", "154547.154000", "154547.157000", "154547.160000", "154552.127000", "154552.130000", "154552.133000", "154552.136000", "154552.139000", "154552.142000", "154552.144000", "154557.127000", "154557.130000", "154557.133000", "154557.136000", "154557.139000", "154557.142000", "154557.144000", "154602.128000", "154602.131000", "154602.134000", "154602.137000", "154602.140000", "154602.142000", "154602.145000", "154607.127000", "154607.130000", "154607.133000", "154607.136000", "154607.139000", "154607.141000", "154607.144000", "154612.127000", "154612.130000", "154612.133000", "154612.136000", "154612.139000", "154612.141000", "154612.144000", "154617.127000", "154617.130000", "154617.133000", "154617.136000", "154617.139000", "154617.141000", "154617.144000", "154622.127000", "154622.130000", "154622.133000", "154622.135000", "154622.138000", "154622.141000", "154622.144000", "154627.127000", "154627.130000", "154627.133000", "154627.136000", "154627.139000", "154627.142000", "154627.144000", "154632.127000", "154632.130000", "154632.133000", "154632.136000", "154632.138000", "154632.141000", "154632.144000", "154637.128000", "154637.131000", "154637.134000", "154637.137000", "154637.140000", "154637.143000", "154637.145000", "154637.148000", "154642.127000", "154642.130000", "154642.133000", "154642.136000", "154642.138000", "154642.141000", "154647.127000", "154647.130000", "154647.133000", "154647.136000", "154647.139000", "154649.484000", "154649.488000", "154649.490000"],
      "InstanceNumber": [1, 2, 3, 4, 5, 6, 7, 8, 9, 10, 11, 12, 13, 14, 15, 16, 17, 18, 19, 20, 21, 22, 23, 24, 25, 26, 27, 28, 29, 30, 31, 32, 33, 34, 35, 36, 37, 38, 39, 40, 41, 42, 43, 44, 45, 46, 47, 48, 49, 50, 51, 52, 53, 54, 55, 56, 57, 58, 59, 60, 61, 62, 63, 64, 65, 66, 67, 68, 69, 70, 71, 72, 73, 74, 75, 76, 77, 78, 79, 80, 81, 82, 83, 84, 85, 86, 87, 88, 89, 90, 91, 92, 93, 94, 95, 96, 97, 98, 99, 100, 101, 102, 103, 104, 105, 106, 107, 108, 109, 110, 111, 112, 113, 114, 115, 116, 117, 118, 119, 120, 121, 122, 123, 124, 125, 126, 127, 128, 129, 130, 131, 132, 133, 134, 135, 136, 137, 138, 139, 140, 141, 142, 143, 144, 145, 146, 147, 148, 149, 150, 151, 152, 153, 154, 155, 156, 157, 158, 159, 160, 161, 162, 163, 164, 165, 166, 167, 168, 169, 170, 171, 172, 173, 174, 175, 176, 177, 178, 179, 180, 181, 182, 183, 184, 185, 186, 187, 188, 189, 190, 191, 192],
      "LargestImagePixelValue": [39359, 39211, 38411, 38473, 38656, 38485, 37900, 37381, 37130, 37305, 37699, 37723, 37726, 37323, 37536, 37419, 36985, 36366, 37176, 37352, 37406, 38390, 39220, 38792, 38785, 38922, 38146, 37181, 37452, 38553, 38851, 39027, 39427, 39865, 38553, 37816, 37583, 37455, 37632, 37886, 38117, 37862, 37754, 37113, 37288, 37720, 38067, 38889, 39024, 38974, 39159, 39033, 38617, 37921, 38096, 38585, 38960, 39065, 39376, 39376, 38652, 39162, 39328, 38768, 38639, 37567, 37922, 37877, 37062, 36938, 36644, 36617, 36901, 37062, 37478, 37524, 38272, 38747, 38298, 37585, 37621, 37081, 37837, 37388, 37794, 37669, 38110, 37895, 36969, 37504, 38436, 38543, 37389, 38363, 37383, 37137, 37431, 37812, 38966, 39108, 39231, 38855, 39595, 38171, 38424, 38290, 38675, 39316, 39230, 39208, 39011, 38748, 37781, 37995, 38429, 37640, 37583, 37164, 36748, 37313, 37677, 37321, 37859, 38353, 37640, 37597, 38247, 39011, 38967, 38751, 39287, 38756, 37762, 37909, 38014, 38120, 38446, 38524, 38617, 37129, 37838, 38940, 38756, 39048, 38826, 38530, 38588, 38220, 39113, 39434, 38899, 38593, 38256, 38044, 37655, 37660, 37967, 37775, 37794, 37896, 37009, 37387, 37877, 38024, 38769, 39207, 39430, 38655, 37617, 38345, 38800, 38991, 38842, 39326, 38886, 38569, 38329, 38105, 39166, 39006, 39263, 38919, 38449, 38706, 38908, 38494, 37858, 38044, 38817, 39192, 39633, 39495],
      "WindowCenter": [9751.0, 9722.0, 9685.0, 9668.0, 9667.0, 9675.0, 9661.0, 9655.0, 9656.0, 9656.0, 9668.0, 9670.0, 9679.0, 9672.0, 9673.0, 9673.0, 9672.0, 9654.0, 9665.0, 9671.0, 9659.0, 9676.0, 9702.0, 9699.0, 9701.0, 9713.0, 9702.0, 9682.0, 9674.0, 9684.0, 9675.0, 9677.0, 9671.0, 9688.0, 9660.0, 9654.0, 9664.0, 9671.0, 9671.0, 9679.0, 9691.0, 9688.0, 9680.0, 9661.0, 9665.0, 9662.0, 9652.0, 9662.0, 9669.0, 9661.0, 9662.0, 9663.0, 9671.0, 9659.0, 9660.0, 9673.0, 9671.0, 9669.0, 9668.0, 9675.0, 9656.0, 9661.0, 9675.0, 9671.0, 9674.0, 9673.0, 9701.0, 9689.0, 9678.0, 9672.0, 9668.0, 9646.0, 9647.0, 9658.0, 9672.0, 9659.0, 9676.0, 9690.0, 9677.0, 9659.0, 9670.0, 9659.0, 9663.0, 9657.0, 9665.0, 9663.0, 9662.0, 9663.0, 9657.0, 9657.0, 9684.0, 9702.0, 9693.0, 9702.0, 9685.0, 9676.0, 9666.0, 9662.0, 9671.0, 9672.0, 9670.0, 9663.0, 9675.0, 9650.0, 9656.0, 9665.0, 9671.0, 9677.0, 9672.0, 9679.0, 9679.0, 9681.0, 9686.0, 9694.0, 9693.0, 9683.0, 9685.0, 9669.0, 9651.0, 9666.0, 9669.0, 9649.0, 9648.0, 9668.0, 9654.0, 9648.0, 9666.0, 9678.0, 9671.0, 9665.0, 9680.0, 9682.0, 9664.0, 9673.0, 9686.0, 9679.0, 9677.0, 9671.0, 9683.0, 9653.0, 9663.0, 9680.0, 9673.0, 9671.0, 9659.0, 9652.0, 9655.0, 9636.0, 9653.0, 9660.0, 9661.0, 9665.0, 9666.0, 9660.0, 9655.0, 9662.0, 9669.0, 9656.0, 9656.0, 9657.0, 9650.0, 9649.0, 9668.0, 9660.0, 9658.0, 9668.0, 9675.0, 9664.0, 9663.0, 9690.0, 9691.0, 9695.0, 9690.0, 9697.0, 9680.0, 9672.0, 9664.0, 9651.0, 9663.0, 9679.0, 9708.0, 9705.0, 9694.0, 9687.0, 9683.0, 9659.0, 9639.0, 9644.0, 9649.0, 9646.0, 9658.0, 9667.0],
      "WindowWidth": [20847.0, 20773.0, 20689.0, 20650.0, 20647.0, 20664.0, 20635.0, 20622.0, 20628.0, 20627.0, 20648.0, 20657.0, 20678.0, 20661.0, 20663.0, 20667.0, 20666.0, 20631.0, 20651.0, 20662.0, 20637.0, 20668.0, 20720.0, 20717.0, 20721.0, 20746.0, 20725.0, 20682.0, 20663.0, 20680.0, 20657.0, 20657.0, 20648.0, 20678.0, 20626.0, 20618.0, 20642.0, 20655.0, 20657.0, 20675.0, 20701.0, 20697.0, 20678.0, 20643.0, 20645.0, 20635.0, 20610.0, 20626.0, 20642.0, 20625.0, 20625.0, 20632.0, 20650.0, 20627.0, 20629.0, 20654.0, 20648.0, 20641.0, 20640.0, 20654.0, 20615.0, 20623.0, 20654.0, 20647.0, 20657.0, 20666.0, 20723.0, 20702.0, 20682.0, 20670.0, 20660.0, 20611.0, 20612.0, 20633.0, 20659.0, 20632.0, 20662.0, 20691.0, 20662.0, 20631.0, 20651.0, 20632.0, 20637.0, 20627.0, 20645.0, 20639.0, 20639.0, 20643.0, 20633.0, 20635.0, 20689.0, 20731.0, 20715.0, 20727.0, 20694.0, 20675.0, 20648.0, 20631.0, 20645.0, 20648.0, 20641.0, 20626.0, 20650.0, 20603.0, 20614.0, 20635.0, 20646.0, 20655.0, 20647.0, 20663.0, 20664.0, 20671.0, 20689.0, 20707.0, 20707.0, 20689.0, 20694.0, 20659.0, 20624.0, 20650.0, 20650.0, 20607.0, 20604.0, 20642.0, 20614.0, 20604.0, 20639.0, 20661.0, 20648.0, 20636.0, 20667.0, 20672.0, 20641.0, 20661.0, 20688.0, 20673.0, 20666.0, 20657.0, 20681.0, 20622.0, 20639.0, 20668.0, 20654.0, 20644.0, 20620.0, 20610.0, 20608.0, 20574.0, 20607.0, 20622.0, 20626.0, 20635.0, 20641.0, 20630.0, 20620.0, 20634.0, 20652.0, 20626.0, 20623.0, 20629.0, 20615.0, 20615.0, 20651.0, 20632.0, 20624.0, 20640.0, 20652.0, 20633.0, 20639.0, 20696.0, 20696.0, 20702.0, 20692.0, 20703.0, 20665.0, 20647.0, 20630.0, 20603.0, 20627.0, 20664.0, 20727.0, 20724.0, 20706.0, 20689.0, 20677.0, 20625.0, 20584.0, 20591.0, 20596.0, 20588.0, 20610.0, 20633.0]
    },
    "slices": {}
  },
  "NumberOfVolumes": 192
}