{
  "AcquisitionMatrixPE": 104,
  "AcquisitionNumber": 1,
  "AcquisitionTime": "16:14:45.565000",
  "BandwidthPerPixelPhaseEncode": 16.578,
  "BaseResolution": 104,
  "BodyPartExamined": "BRAIN",
  "ConsistencyInfo": "N4_VE11C_LATEST_20160120",
  "ConversionSoftware": "dcm2niix",
  "ConversionSoftwareVersion": "v1.0.20190902",
  "DerivedVendorReportedEchoSpacing": 0.000580009,
  "DeviceSerialNumber": "166018",
  "DwellTime": 2.1e-06,
  "EchoTime": 0.037,
  "EchoTrainLength": 104,
  "EffectiveEchoSpacing": 0.000580009,
  "FlipAngle": 68,
  "ImageComments": "Unaliased_MB6_PE3_LB",
  "ImageOrientationPatientDICOM": [0.998756, 0.0349869, 0.0355412, -0.0245835, 0.965421, -0.259534],
  "ImageType": [
    "ORIGINAL",
    "PRIMARY",
    "M",
    "MB",
    "ND",
    "MOSAIC"
],
  "ImagingFrequency": 123.191,
  "InPlanePhaseEncodingDirectionDICOM": "COL",
  "InstitutionAddress": "Washington_Place_6_NYC_NYC_US_10003",
  "InstitutionName": "NYU_-_CBI",
  "InstitutionalDepartmentName": "Department",
  "MRAcquisitionType": "2D",
  "MagneticFieldStrength": 3,
  "Manufacturer": "Siemens",
  "ManufacturersModelName": "Prisma",
  "Modality": "MR",
  "MultibandAccelerationFactor": 6,
  "PartialFourier": 1,
  "PatientPosition": "HFS",
  "PercentPhaseFOV": 100,
  "PhaseEncodingDirection": "j",
  "PhaseEncodingSteps": 104,
  "PhaseResolution": 1,
  "PixelBandwidth": 2290,
  "ProcedureStepDescription": "Investigators_Winawer",
  "ProtocolName": "cmrr_mbepi_s6_2mm_66sl_PA_task-prf",
  "PulseSequenceDetails": "%CustomerSeq%_cmrr_mbep2d_bold",
  "ReceiveCoilActiveElements": "HC1-7",
  "ReceiveCoilName": "HeadNeck_64",
  "ReconMatrixPE": 104,
  "RepetitionTime": 1,
  "SAR": 0.0682376,
  "ScanOptions": "FS",
  "ScanningSequence": "EP",
  "SequenceName": "epfid2d1_104",
  "SequenceVariant": "SK_SS",
  "SeriesDescription": "cmrr_mbepi_s6_2mm_66sl_PA_task-prf",
  "SeriesNumber": 36,
  "ShimSetting": [268, -12683, -8479, 684, 27, -214, 121, -31],
  "SliceThickness": 2,
  "SliceTiming": [0, 0.535, 0.09, 0.625, 0.1775, 0.7125, 0.2675, 0.8025, 0.3575, 0.89, 0.445, 0, 0.535, 0.09, 0.625, 0.1775, 0.7125, 0.2675, 0.8025, 0.3575, 0.89, 0.445, 0, 0.535, 0.09, 0.625, 0.1775, 0.7125, 0.2675, 0.8025, 0.3575, 0.89, 0.445, 0, 0.535, 0.09, 0.625, 0.1775, 0.7125, 0.2675, 0.8025, 0.3575, 0.89, 0.445, 0, 0.535, 0.09, 0.625, 0.1775, 0.7125, 0.2675, 0.8025, 0.3575, 0.89, 0.445, 0, 0.535, 0.09, 0.625, 0.1775, 0.7125, 0.2675, 0.8025, 0.3575, 0.89, 0.445],
  "SoftwareVersions": "syngo_MR_E11",
  "SpacingBetweenSlices": 2,
  "StationName": "AWP166018",
  "TaskName": "prf",
  "TotalReadoutTime": 0.0597409,
  "TxRefAmp": 229.983,
  "WipMemBlock": "7816fbbd-ffcb-42cb-9261-1e5f55231595||Sequence: R016 ve11c/master r/8780670; Nov 27 2017 15:05:12 by eja",
  "dcmmeta_affine": [
    [-1.9975111484527588, -0.049167003482580185, 0.08678508549928665, 109.34681701660156],
    [-0.06997379660606384, 1.9308418035507202, -0.5166755318641663, -70.97101593017578],
    [0.07108244299888611, 0.5190688967704773, 1.930159330368042, -93.14346313476562],
    [0.0, 0.0, 0.0, 1.0]
],
  "dcmmeta_reorient_transform": [
    [0.0, -1.0, 0.0, 103.0],
    [1.0, 0.0, 0.0, 0.0],
    [0.0, 0.0, 1.0, 0.0],
    [0.0, 0.0, 0.0, 1.0]
],
  "dcmmeta_shape": [104, 104, 66, 192],
  "dcmmeta_slice_dim": 2,
  "dcmmeta_version": 0.6,
  "global": {
    "const": {
      "AccessionNumber": "JU45L8EW",
      "AcquisitionMatrix": [104, 0, 0, 104],
      "AngioFlag": "N",
      "BitsAllocated": 16,
      "BitsStored": 16,
      "BodyPartExamined": "BRAIN",
      "Columns": 936,
      "EchoNumbers": 1,
      "EchoTime": 37.0,
      "EchoTrainLength": 104,
      "FlipAngle": 68.0,
      "HighBit": 15,
      "ImageOrientationPatient": [0.9987555950964, 0.03498689668548, 0.0355412200685, -0.0245835026138, 0.9654209056492, -0.2595344415193],
      "ImagePositionPatient": [-914.79379542357, -960.24497851321, 146.68298868247],
      "ImageType": [
        "ORIGINAL",
        "PRIMARY",
        "M",
        "MB",
        "ND",
        "MOSAIC"
],
      "ImagedNucleus": "1H",
      "ImagingFrequency": 123.190971,
      "InPlanePhaseEncodingDirection": "COL",
      "MRAcquisitionType": "2D",
      "MagneticFieldStrength": 3.0,
      "Manufacturer": "SIEMENS",
      "ManufacturerModelName": "Prisma",
      "Modality": "MR",
      "NumberOfAverages": 1.0,
      "NumberOfPhaseEncodingSteps": 104,
      "PercentPhaseFieldOfView": 100.0,
      "PercentSampling": 100.0,
      "PerformedProcedureStepStartTime": "151256.218000",
      "PhotometricInterpretation": "MONOCHROME2",
      "PixelBandwidth": 2290.0,
      "PixelRepresentation": 0,
      "PixelSpacing": [2.0, 2.0],
      "ProtocolName": "cmrr_mbepi_s6_2mm_66sl_PA_task-prf",
      "RepetitionTime": 1000.0,
      "Rows": 936,
      "SAR": 0.06823761511738,
      "SamplesPerPixel": 1,
      "ScanOptions": "FS",
      "ScanningSequence": "EP",
      "SequenceName": "epfid2d1_104",
      "SequenceVariant": [
        "SK",
        "SS"
],
      "SeriesDescription": "cmrr_mbepi_s6_2mm_66sl_PA_task-prf",
      "SeriesNumber": 36,
      "SeriesTime": "161540.654000",
      "SliceLocation": -66.811532726435,
      "SliceThickness": 2.0,
      "SmallestImagePixelValue": 0,
      "SoftwareVersions": "syngo MR E11",
      "SpacingBetweenSlices": 2.00000002525,
      "SpecificCharacterSet": "ISO_IR 100",
      "StudyID": "1",
      "StudyTime": "151256.169000",
      "TransmitCoilName": "Body",
      "VariableFlipAngleFlag": "N",
      "WindowCenterWidthExplanation": "Algo1",
      "dBdt": 0.0},
    "slices": {}
  },
  "time": {
    "samples": {
      "AcquisitionNumber": [1, 2, 3, 4, 5, 6, 7, 8, 9, 10, 11, 12, 13, 14, 15, 16, 17, 18, 19, 20, 21, 22, 23, 24, 25, 26, 27, 28, 29, 30, 31, 32, 33, 34, 35, 36, 37, 38, 39, 40, 41, 42, 43, 44, 45, 46, 47, 48, 49, 50, 51, 52, 53, 54, 55, 56, 57, 58, 59, 60, 61, 62, 63, 64, 65, 66, 67, 68, 69, 70, 71, 72, 73, 74, 75, 76, 77, 78, 79, 80, 81, 82, 83, 84, 85, 86, 87, 88, 89, 90, 91, 92, 93, 94, 95, 96, 97, 98, 99, 100, 101, 102, 103, 104, 105, 106, 107, 108, 109, 110, 111, 112, 113, 114, 115, 116, 117, 118, 119, 120, 121, 122, 123, 124, 125, 126, 127, 128, 129, 130, 131, 132, 133, 134, 135, 136, 137, 138, 139, 140, 141, 142, 143, 144, 145, 146, 147, 148, 149, 150, 151, 152, 153, 154, 155, 156, 157, 158, 159, 160, 161, 162, 163, 164, 165, 166, 167, 168, 169, 170, 171, 172, 173, 174, 175, 176, 177, 178, 179, 180, 181, 182, 183, 184, 185, 186, 187, 188, 189, 190, 191, 192],
      "AcquisitionTime": ["161445.565000", "161446.565000", "161447.565000", "161448.565000", "161449.565000", "161450.565000", "161451.565000", "161452.565000", "161453.565000", "161454.565000", "161455.565000", "161456.565000", "161457.565000", "161458.565000", "161459.565000", "161500.565000", "161501.565000", "161502.565000", "161503.565000", "161504.565000", "161505.565000", "161506.565000", "161507.565000", "161508.565000", "161509.565000", "161510.565000", "161511.565000", "161512.565000", "161513.565000", "161514.565000", "161515.565000", "161516.565000", "161517.565000", "161518.565000", "161519.565000", "161520.565000", "161521.565000", "161522.565000", "161523.565000", "161524.565000", "161525.565000", "161526.565000", "161527.565000", "161528.565000", "161529.565000", "161530.565000", "161531.565000", "161532.565000", "161533.565000", "161534.565000", "161535.565000", "161536.565000", "161537.565000", "161538.565000", "161539.565000", "161540.565000", "161541.565000", "161542.565000", "161543.565000", "161544.565000", "161545.565000", "161546.565000", "161547.565000", "161548.565000", "161549.565000", "161550.565000", "161551.565000", "161552.565000", "161553.565000", "161554.565000", "161555.565000", "161556.565000", "161557.565000", "161558.565000", "161559.565000", "161600.565000", "161601.565000", "161602.565000", "161603.565000", "161604.565000", "161605.565000", "161606.565000", "161607.565000", "161608.565000", "161609.565000", "161610.565000", "161611.565000", "161612.565000", "161613.565000", "161614.565000", "161615.565000", "161616.565000", "161617.565000", "161618.565000", "161619.565000", "161620.565000", "161621.565000", "161622.565000", "161623.565000", "161624.565000", "161625.565000", "161626.565000", "161627.565000", "161628.565000", "161629.565000", "161630.565000", "161631.565000", "161632.565000", "161633.565000", "161634.565000", "161635.565000", "161636.565000", "161637.565000", "161638.565000", "161639.565000", "161640.565000", "161641.565000", "161642.565000", "161643.565000", "161644.565000", "161645.565000", "161646.565000", "161647.565000", "161648.565000", "161649.565000", "161650.565000", "161651.565000", "161652.565000", "161653.565000", "161654.565000", "161655.565000", "161656.565000", "161657.565000", "161658.565000", "161659.565000", "161700.565000", "161701.565000", "161702.565000", "161703.565000", "161704.565000", "161705.565000", "161706.565000", "161707.565000", "161708.565000", "161709.565000", "161710.565000", "161711.565000", "161712.565000", "161713.565000", "161714.565000", "161715.565000", "161716.565000", "161717.565000", "161718.565000", "161719.565000", "161720.565000", "161721.565000", "161722.565000", "161723.565000", "161724.565000", "161725.565000", "161726.565000", "161727.565000", "161728.565000", "161729.565000", "161730.565000", "161731.565000", "161732.565000", "161733.565000", "161734.565000", "161735.565000", "161736.565000", "161737.565000", "161738.565000", "161739.565000", "161740.565000", "161741.565000", "161742.565000", "161743.565000", "161744.565000", "161745.565000", "161746.565000", "161747.565000", "161748.565000", "161749.565000", "161750.565000", "161751.565000", "161752.565000", "161753.565000", "161754.565000", "161755.565000", "161756.565000"],
      "ContentTime": ["161540.656000", "161545.622000", "161545.625000", "161545.628000", "161545.639000", "161545.642000", "161545.650000", "161545.653000", "161550.622000", "161550.625000", "161550.635000", "161550.638000", "161550.640000", "161550.643000", "161550.646000", "161555.622000", "161555.625000", "161555.628000", "161555.637000", "161555.640000", "161555.643000", "161555.646000", "161600.622000", "161600.625000", "161600.628000", "161600.631000", "161600.634000", "161600.636000", "161600.639000", "161605.622000", "161605.625000", "161605.628000", "161605.631000", "161605.633000", "161605.636000", "161605.639000", "161610.622000", "161610.625000", "161610.628000", "161610.631000", "161610.633000", "161610.636000", "161610.639000", "161615.622000", "161615.625000", "161615.628000", "161615.631000", "161615.634000", "161615.637000", "161615.639000", "161620.622000", "161620.625000", "161620.628000", "161620.631000", "161620.634000", "161620.637000", "161620.639000", "161625.622000", "161625.625000", "161625.628000", "161625.631000", "161625.634000", "161625.637000", "161625.639000", "161630.622000", "161630.625000", "161630.628000", "161630.631000", "161630.633000", "161630.636000", "161630.639000", "161635.622000", "161635.625000", "161635.628000", "161635.631000", "161635.634000", "161635.637000", "161635.639000", "161640.622000", "161640.625000", "161640.628000", "161640.631000", "161640.633000", "161640.636000", "161640.639000", "161640.642000", "161645.622000", "161645.625000", "161645.628000", "161645.631000", "161645.633000", "161645.636000", "161645.639000", "161650.622000", "161650.625000", "161650.628000", "161650.631000", "161650.633000", "161650.636000", "161650.639000", "161655.622000", "161655.625000", "161655.628000", "161655.631000", "161655.633000", "161655.636000", "161655.639000", "161700.622000", "161700.625000", "161700.628000", "161700.631000", "161700.634000", "161700.636000", "161700.639000", "161705.622000", "161705.625000", "161705.628000", "161705.631000", "161705.634000", "161705.636000", "161705.639000", "161710.622000", "161710.625000", "161710.628000", "161710.631000", "161710.634000", "161710.637000", "161710.639000", "161715.622000", "161715.625000", "161715.628000", "161715.631000", "161715.634000", "161715.637000", "161715.640000", "161720.622000", "161720.625000", "161720.628000", "161720.631000", "161720.634000", "161720.636000", "161720.639000", "161725.622000", "161725.625000", "161725.628000", "161725.631000", "161725.634000", "161725.637000", "161725.639000", "161730.622000", "161730.625000", "161730.628000", "161730.631000", "161730.633000", "161730.636000", "161730.639000", "161735.622000", "161735.625000", "161735.628000", "161735.631000", "161735.649000", "161735.652000", "161735.655000", "161740.622000", "161740.625000", "161740.628000", "161740.631000", "161740.634000", "161740.636000", "161740.639000", "161745.622000", "161745.625000", "161745.628000", "161745.631000", "161745.634000", "161745.637000", "161745.639000", "161750.622000", "161750.625000", "161750.628000", "161750.631000", "161750.634000", "161750.636000", "161750.639000", "161755.622000", "161755.625000", "161755.628000", "161755.631000", "161755.634000", "161758.007000", "161758.010000", "161758.013000"],
      "InstanceCreationTime": ["161540.656000", "161545.622000", "161545.625000", "161545.628000", "161545.639000", "161545.642000", "161545.650000", "161545.653000", "161550.622000", "161550.625000", "161550.635000", "161550.638000", "161550.640000", "161550.643000", "161550.646000", "161555.622000", "161555.625000", "161555.628000", "161555.637000", "161555.640000", "161555.643000", "161555.646000", "161600.622000", "161600.625000", "161600.628000", "161600.631000", "161600.634000", "161600.636000", "161600.639000", "161605.622000", "161605.625000", "161605.628000", "161605.631000", "161605.633000", "161605.636000", "161605.639000", "161610.622000", "161610.625000", "161610.628000", "161610.631000", "161610.633000", "161610.636000", "161610.639000", "161615.622000", "161615.625000", "161615.628000", "161615.631000", "161615.634000", "161615.637000", "161615.639000", "161620.622000", "161620.625000", "161620.628000", "161620.631000", "161620.634000", "161620.637000", "161620.639000", "161625.622000", "161625.625000", "161625.628000", "161625.631000", "161625.634000", "161625.637000", "161625.639000", "161630.622000", "161630.625000", "161630.628000", "161630.631000", "161630.633000", "161630.636000", "161630.639000", "161635.622000", "161635.625000", "161635.628000", "161635.631000", "161635.634000", "161635.637000", "161635.639000", "161640.622000", "161640.625000", "161640.628000", "161640.631000", "161640.633000", "161640.636000", "161640.639000", "161640.642000", "161645.622000", "161645.625000", "161645.628000", "161645.631000", "161645.633000", "161645.636000", "161645.639000", "161650.622000", "161650.625000", "161650.628000", "161650.631000", "161650.633000", "161650.636000", "161650.639000", "161655.622000", "161655.625000", "161655.628000", "161655.631000", "161655.633000", "161655.636000", "161655.639000", "161700.622000", "161700.625000", "161700.628000", "161700.631000", "161700.634000", "161700.636000", "161700.639000", "161705.622000", "161705.625000", "161705.628000", "161705.631000", "161705.634000", "161705.636000", "161705.639000", "161710.622000", "161710.625000", "161710.628000", "161710.631000", "161710.634000", "161710.637000", "161710.639000", "161715.622000", "161715.625000", "161715.628000", "161715.631000", "161715.634000", "161715.637000", "161715.640000", "161720.622000", "161720.625000", "161720.628000", "161720.631000", "161720.634000", "161720.636000", "161720.639000", "161725.622000", "161725.625000", "161725.628000", "161725.631000", "161725.634000", "161725.637000", "161725.639000", "161730.622000", "161730.625000", "161730.628000", "161730.631000", "161730.633000", "161730.636000", "161730.639000", "161735.622000", "161735.625000", "161735.628000", "161735.631000", "161735.649000", "161735.652000", "161735.655000", "161740.622000", "161740.625000", "161740.628000", "161740.631000", "161740.634000", "161740.636000", "161740.639000", "161745.622000", "161745.625000", "161745.628000", "161745.631000", "161745.634000", "161745.637000", "161745.639000", "161750.622000", "161750.625000", "161750.628000", "161750.631000", "161750.634000", "161750.636000", "161750.639000", "161755.622000", "161755.625000", "161755.628000", "161755.631000", "161755.634000", "161758.007000", "161758.010000", "161758.013000"],
      "InstanceNumber": [1, 2, 3, 4, 5, 6, 7, 8, 9, 10, 11, 12, 13, 14, 15, 16, 17, 18, 19, 20, 21, 22, 23, 24, 25, 26, 27, 28, 29, 30, 31, 32, 33, 34, 35, 36, 37, 38, 39, 40, 41, 42, 43, 44, 45, 46, 47, 48, 49, 50, 51, 52, 53, 54, 55, 56, 57, 58, 59, 60, 61, 62, 63, 64, 65, 66, 67, 68, 69, 70, 71, 72, 73, 74, 75, 76, 77, 78, 79, 80, 81, 82, 83, 84, 85, 86, 87, 88, 89, 90, 91, 92, 93, 94, 95, 96, 97, 98, 99, 100, 101, 102, 103, 104, 105, 106, 107, 108, 109, 110, 111, 112, 113, 114, 115, 116, 117, 118, 119, 120, 121, 122, 123, 124, 125, 126, 127, 128, 129, 130, 131, 132, 133, 134, 135, 136, 137, 138, 139, 140, 141, 142, 143, 144, 145, 146, 147, 148, 149, 150, 151, 152, 153, 154, 155, 156, 157, 158, 159, 160, 161, 162, 163, 164, 165, 166, 167, 168, 169, 170, 171, 172, 173, 174, 175, 176, 177, 178, 179, 180, 181, 182, 183, 184, 185, 186, 187, 188, 189, 190, 191, 192],
      "LargestImagePixelValue": [40118, 40640, 40095, 38802, 38589, 39586, 39238, 37600, 39065, 39719, 38403, 38425, 40080, 39926, 38512, 39026, 39530, 38159, 37889, 39902, 39208, 37639, 39430, 39523, 38770, 38896, 38380, 39633, 39452, 38165, 38453, 39795, 39487, 38037, 38802, 40011, 39049, 38267, 38531, 39102, 39159, 38461, 38715, 39844, 39702, 39679, 38738, 38210, 39756, 39846, 37684, 38379, 38930, 39483, 38522, 38806, 40010, 38641, 37606, 39443, 39599, 39281, 38513, 39748, 40029, 38195, 40297, 39613, 39296, 38138, 39842, 39393, 38081, 37805, 38963, 38807, 38200, 39394, 39579, 37615, 39164, 39242, 39079, 38139, 39842, 39277, 38030, 38163, 39819, 40128, 38294, 39457, 39679, 39118, 37433, 39379, 39162, 38206, 37950, 39618, 39801, 38517, 38192, 39645, 39506, 37396, 38687, 39127, 38729, 37866, 39118, 39290, 38361, 39107, 39446, 39285, 39143, 37821, 39822, 39193, 38276, 38395, 39829, 39069, 37738, 39067, 38706, 37605, 37635, 39193, 38657, 37748, 38850, 38807, 37649, 37763, 39052, 38433, 37428, 38890, 38401, 37796, 37391, 37885, 38642, 38255, 37259, 38434, 38308, 36918, 37606, 37887, 37782, 36756, 38680, 38537, 36991, 37120, 38959, 38123, 37767, 39062, 39012, 37472, 37986, 38964, 39039, 36464, 37705, 37457, 36815, 37253, 37828, 37660, 36784, 37510, 37584, 36590, 37139, 37544, 37902, 37277, 38122, 38226, 37608, 36847, 37919, 37452, 36715, 37262, 37543, 37561],
      "WindowCenter": [9734.0, 9694.0, 9671.0, 9651.0, 9636.0, 9652.0, 9647.0, 9632.0, 9639.0, 9644.0, 9633.0, 9631.0, 9642.0, 9643.0, 9640.0, 9640.0, 9654.0, 9653.0, 9647.0, 9667.0, 9654.0, 9631.0, 9637.0, 9638.0, 9633.0, 9645.0, 9631.0, 9649.0, 9651.0, 9635.0, 9651.0, 9670.0, 9664.0, 9653.0, 9640.0, 9643.0, 9631.0, 9625.0, 9623.0, 9623.0, 9631.0, 9632.0, 9632.0, 9643.0, 9645.0, 9652.0, 9641.0, 9643.0, 9663.0, 9671.0, 9647.0, 9633.0, 9624.0, 9627.0, 9616.0, 9620.0, 9634.0, 9631.0, 9628.0, 9654.0, 9668.0, 9663.0, 9636.0, 9651.0, 9652.0, 9645.0, 9665.0, 9658.0, 9656.0, 9630.0, 9642.0, 9632.0, 9627.0, 9616.0, 9641.0, 9642.0, 9634.0, 9632.0, 9636.0, 9626.0, 9628.0, 9628.0, 9629.0, 9617.0, 9631.0, 9621.0, 9610.0, 9602.0, 9613.0, 9627.0, 9625.0, 9629.0, 9636.0, 9635.0, 9610.0, 9617.0, 9614.0, 9621.0, 9616.0, 9634.0, 9642.0, 9642.0, 9634.0, 9644.0, 9643.0, 9620.0, 9616.0, 9628.0, 9624.0, 9613.0, 9624.0, 9636.0, 9634.0, 9638.0, 9645.0, 9639.0, 9629.0, 9612.0, 9633.0, 9637.0, 9634.0, 9633.0, 9643.0, 9636.0, 9620.0, 9629.0, 9629.0, 9619.0, 9625.0, 9637.0, 9636.0, 9627.0, 9630.0, 9629.0, 9624.0, 9616.0, 9626.0, 9622.0, 9619.0, 9638.0, 9642.0, 9653.0, 9649.0, 9646.0, 9641.0, 9631.0, 9604.0, 9605.0, 9599.0, 9589.0, 9601.0, 9617.0, 9632.0, 9616.0, 9630.0, 9618.0, 9606.0, 9597.0, 9614.0, 9608.0, 9609.0, 9627.0, 9629.0, 9626.0, 9624.0, 9636.0, 9635.0, 9609.0, 9617.0, 9611.0, 9607.0, 9605.0, 9616.0, 9616.0, 9606.0, 9610.0, 9611.0, 9608.0, 9606.0, 9612.0, 9611.0, 9605.0, 9607.0, 9609.0, 9623.0, 9623.0, 9636.0, 9632.0, 9620.0, 9622.0, 9612.0, 9608.0],
      "WindowWidth": [20807.0, 20704.0, 20650.0, 20610.0, 20576.0, 20602.0, 20593.0, 20571.0, 20575.0, 20581.0, 20567.0, 20559.0, 20576.0, 20582.0, 20582.0, 20581.0, 20612.0, 20619.0, 20608.0, 20637.0, 20613.0, 20570.0, 20572.0, 20572.0, 20565.0, 20588.0, 20561.0, 20592.0, 20600.0, 20575.0, 20608.0, 20640.0, 20630.0, 20613.0, 20580.0, 20582.0, 20560.0, 20550.0, 20544.0, 20544.0, 20561.0, 20566.0, 20567.0, 20584.0, 20592.0, 20608.0, 20587.0, 20594.0, 20629.0, 20644.0, 20601.0, 20567.0, 20544.0, 20546.0, 20525.0, 20529.0, 20557.0, 20559.0, 20560.0, 20606.0, 20636.0, 20629.0, 20575.0, 20601.0, 20606.0, 20600.0, 20633.0, 20626.0, 20622.0, 20570.0, 20584.0, 20565.0, 20560.0, 20538.0, 20584.0, 20588.0, 20571.0, 20561.0, 20569.0, 20554.0, 20550.0, 20550.0, 20555.0, 20535.0, 20554.0, 20537.0, 20521.0, 20504.0, 20521.0, 20550.0, 20554.0, 20557.0, 20570.0, 20568.0, 20520.0, 20525.0, 20520.0, 20538.0, 20528.0, 20561.0, 20580.0, 20587.0, 20569.0, 20585.0, 20582.0, 20542.0, 20529.0, 20551.0, 20545.0, 20527.0, 20544.0, 20569.0, 20572.0, 20579.0, 20593.0, 20582.0, 20561.0, 20528.0, 20563.0, 20574.0, 20575.0, 20569.0, 20585.0, 20574.0, 20548.0, 20558.0, 20561.0, 20546.0, 20556.0, 20574.0, 20576.0, 20562.0, 20560.0, 20559.0, 20552.0, 20535.0, 20550.0, 20544.0, 20544.0, 20577.0, 20593.0, 20619.0, 20614.0, 20601.0, 20585.0, 20561.0, 20508.0, 20502.0, 20489.0, 20478.0, 20501.0, 20534.0, 20568.0, 20540.0, 20558.0, 20535.0, 20517.0, 20495.0, 20523.0, 20517.0, 20518.0, 20550.0, 20558.0, 20558.0, 20549.0, 20567.0, 20566.0, 20524.0, 20532.0, 20521.0, 20515.0, 20511.0, 20527.0, 20529.0, 20515.0, 20519.0, 20521.0, 20521.0, 20514.0, 20525.0, 20522.0, 20512.0, 20509.0, 20515.0, 20547.0, 20555.0, 20578.0, 20573.0, 20553.0, 20550.0, 20522.0, 20511.0]
    },
    "slices": {}
  },
  "NumberOfVolumes": 192
}