{
  "AcquisitionMatrixPE": 104,
  "AcquisitionNumber": 1,
  "AcquisitionTime": "16:40:4.465000",
  "BandwidthPerPixelPhaseEncode": 16.578,
  "BaseResolution": 104,
  "BodyPartExamined": "BRAIN",
  "ConsistencyInfo": "N4_VE11C_LATEST_20160120",
  "ConversionSoftware": "dcm2niix",
  "ConversionSoftwareVersion": "v1.0.20190902",
  "DerivedVendorReportedEchoSpacing": 0.000580009,
  "DeviceSerialNumber": "166018",
  "DwellTime": 2.1e-06,
  "EchoTime": 0.037,
  "EchoTrainLength": 104,
  "EffectiveEchoSpacing": 0.000580009,
  "FlipAngle": 68,
  "ImageComments": "Unaliased_MB6_PE3_LB",
  "ImageOrientationPatientDICOM": [0.998528, 0.00292711, 0.0541541, 0.0113284, 0.965258, -0.261055],
  "ImageType": [
    "ORIGINAL",
    "PRIMARY",
    "FMRI",
    "NONE",
    "MB",
    "ND",
    "MOSAIC"
],
  "ImagingFrequency": 123.191,
  "InPlanePhaseEncodingDirectionDICOM": "COL",
  "InstitutionAddress": "Washington_Place_6_NYC_NYC_US_10003",
  "InstitutionName": "NYU_-_CBI",
  "InstitutionalDepartmentName": "Department",
  "MRAcquisitionType": "2D",
  "MagneticFieldStrength": 3,
  "Manufacturer": "Siemens",
  "ManufacturersModelName": "Prisma",
  "Modality": "MR",
  "MultibandAccelerationFactor": 6,
  "PartialFourier": 1,
  "PatientPosition": "HFS",
  "PercentPhaseFOV": 100,
  "PhaseEncodingDirection": "j",
  "PhaseEncodingSteps": 104,
  "PhaseResolution": 1,
  "PixelBandwidth": 2290,
  "ProcedureStepDescription": "Investigators_Winawer",
  "ProtocolName": "cmrr_mbepi_s6_2mm_66sl_PA_task-prf",
  "PulseSequenceDetails": "%CustomerSeq%_cmrr_mbep2d_bold",
  "ReceiveCoilActiveElements": "HC1-7",
  "ReceiveCoilName": "HeadNeck_64",
  "ReconMatrixPE": 104,
  "RepetitionTime": 1,
  "SAR": 0.0751342,
  "ScanOptions": "FS",
  "ScanningSequence": "EP",
  "SequenceName": "epfid2d1_104",
  "SequenceVariant": "SK_SS",
  "SeriesDescription": "cmrr_mbepi_s6_2mm_66sl_PA_task-prf",
  "SeriesNumber": 14,
  "ShimSetting": [273, -12572, -8409, 330, -51, -69, -97, 26],
  "SliceThickness": 2,
  "SliceTiming": [0, 0.535, 0.09, 0.625, 0.18, 0.7125, 0.2675, 0.8025, 0.3575, 0.8925, 0.4475, 0, 0.535, 0.09, 0.625, 0.18, 0.7125, 0.2675, 0.8025, 0.3575, 0.8925, 0.4475, 0, 0.535, 0.09, 0.625, 0.18, 0.7125, 0.2675, 0.8025, 0.3575, 0.8925, 0.4475, 0, 0.535, 0.09, 0.625, 0.18, 0.7125, 0.2675, 0.8025, 0.3575, 0.8925, 0.4475, 0, 0.535, 0.09, 0.625, 0.18, 0.7125, 0.2675, 0.8025, 0.3575, 0.8925, 0.4475, 0, 0.535, 0.09, 0.625, 0.18, 0.7125, 0.2675, 0.8025, 0.3575, 0.8925, 0.4475],
  "SoftwareVersions": "syngo_MR_E11",
  "SpacingBetweenSlices": 2,
  "StationName": "AWP166018",
  "TaskName": "prf",
  "TotalReadoutTime": 0.0597409,
  "TxRefAmp": 230.408,
  "WipMemBlock": "18709dc5-b9c1-4c5f-8d98-c15ecd1181b8||Sequence: R016 ve11c/master r/8780670; Nov 27 2017 15:05:12 by eja",
  "dcmmeta_affine": [
    [-1.9970566034317017, 0.022656887769699097, 0.10607355833053589, 108.55162811279297],
    [-0.005854212213307619, 1.9305150508880615, -0.5225681066513062, -72.21367645263672],
    [0.10830818116664886, 0.5221095085144043, 1.9276076555252075, -64.4687728881836],
    [0.0, 0.0, 0.0, 1.0]
],
  "dcmmeta_reorient_transform": [
    [0.0, -1.0, 0.0, 103.0],
    [1.0, 0.0, 0.0, 0.0],
    [0.0, 0.0, 1.0, 0.0],
    [0.0, 0.0, 0.0, 1.0]
],
  "dcmmeta_shape": [104, 104, 66, 192],
  "dcmmeta_slice_dim": 2,
  "dcmmeta_version": 0.6,
  "global": {
    "const": {
      "AccessionNumber": "jur4Lwg3",
      "AcquisitionMatrix": [104, 0, 0, 104],
      "AngioFlag": "N",
      "BitsAllocated": 16,
      "BitsStored": 16,
      "BodyPartExamined": "BRAIN",
      "Columns": 936,
      "EchoNumbers": 1,
      "EchoTime": 37.0,
      "EchoTrainLength": 104,
      "FlipAngle": 68.0,
      "HighBit": 15,
      "ImageOrientationPatient": [0.99852830026932, 0.00292710608909, 0.05415409136158, 0.01132844359189, 0.9652575224754, -0.2610547484158],
      "ImagePositionPatient": [-951.08609740043, -932.15898372308, 161.44985133697],
      "ImageType": [
        "ORIGINAL",
        "PRIMARY",
        "FMRI",
        "NONE",
        "MB",
        "ND",
        "MOSAIC"
],
      "ImagedNucleus": "1H",
      "ImagingFrequency": 123.190992,
      "InPlanePhaseEncodingDirection": "COL",
      "MRAcquisitionType": "2D",
      "MagneticFieldStrength": 3.0,
      "Manufacturer": "SIEMENS",
      "ManufacturerModelName": "Prisma",
      "Modality": "MR",
      "NumberOfAverages": 1.0,
      "NumberOfPhaseEncodingSteps": 104,
      "PercentPhaseFieldOfView": 100.0,
      "PercentSampling": 100.0,
      "PerformedProcedureStepStartTime": "161503.964000",
      "PhotometricInterpretation": "MONOCHROME2",
      "PixelBandwidth": 2290.0,
      "PixelRepresentation": 0,
      "PixelSpacing": [2.0, 2.0],
      "ProtocolName": "cmrr_mbepi_s6_2mm_66sl_PA_task-prf",
      "RepetitionTime": 1000.0,
      "Rows": 936,
      "SAR": 0.0751342209519,
      "SamplesPerPixel": 1,
      "ScanOptions": "FS",
      "ScanningSequence": "EP",
      "SequenceName": "epfid2d1_104",
      "SequenceVariant": [
        "SK",
        "SS"
],
      "SeriesDescription": "cmrr_mbepi_s6_2mm_66sl_PA_task-prf",
      "SeriesNumber": 14,
      "SeriesTime": "164058.514000",
      "SliceLocation": -37.509738888644,
      "SliceThickness": 2.0,
      "SmallestImagePixelValue": 0,
      "SoftwareVersions": "syngo MR E11",
      "SpacingBetweenSlices": 2.0000000737764,
      "SpecificCharacterSet": "ISO_IR 100",
      "StudyID": "1",
      "StudyTime": "161503.852000",
      "TransmitCoilName": "Body",
      "VariableFlipAngleFlag": "N",
      "WindowCenterWidthExplanation": "Algo1",
      "dBdt": 0.0},
    "slices": {}
  },
  "time": {
    "samples": {
      "AcquisitionNumber": [1, 2, 3, 4, 5, 6, 7, 8, 9, 10, 11, 12, 13, 14, 15, 16, 17, 18, 19, 20, 21, 22, 23, 24, 25, 26, 27, 28, 29, 30, 31, 32, 33, 34, 35, 36, 37, 38, 39, 40, 41, 42, 43, 44, 45, 46, 47, 48, 49, 50, 51, 52, 53, 54, 55, 56, 57, 58, 59, 60, 61, 62, 63, 64, 65, 66, 67, 68, 69, 70, 71, 72, 73, 74, 75, 76, 77, 78, 79, 80, 81, 82, 83, 84, 85, 86, 87, 88, 89, 90, 91, 92, 93, 94, 95, 96, 97, 98, 99, 100, 101, 102, 103, 104, 105, 106, 107, 108, 109, 110, 111, 112, 113, 114, 115, 116, 117, 118, 119, 120, 121, 122, 123, 124, 125, 126, 127, 128, 129, 130, 131, 132, 133, 134, 135, 136, 137, 138, 139, 140, 141, 142, 143, 144, 145, 146, 147, 148, 149, 150, 151, 152, 153, 154, 155, 156, 157, 158, 159, 160, 161, 162, 163, 164, 165, 166, 167, 168, 169, 170, 171, 172, 173, 174, 175, 176, 177, 178, 179, 180, 181, 182, 183, 184, 185, 186, 187, 188, 189, 190, 191, 192],
      "AcquisitionTime": ["164004.465000", "164005.465000", "164006.465000", "164007.465000", "164008.465000", "164009.465000", "164010.465000", "164011.465000", "164012.465000", "164013.465000", "164014.465000", "164015.465000", "164016.465000", "164017.465000", "164018.465000", "164019.465000", "164020.465000", "164021.465000", "164022.465000", "164023.465000", "164024.465000", "164025.465000", "164026.465000", "164027.465000", "164028.465000", "164029.465000", "164030.465000", "164031.465000", "164032.465000", "164033.465000", "164034.465000", "164035.465000", "164036.465000", "164037.465000", "164038.465000", "164039.465000", "164040.465000", "164041.465000", "164042.465000", "164043.465000", "164044.465000", "164045.465000", "164046.465000", "164047.465000", "164048.465000", "164049.465000", "164050.465000", "164051.465000", "164052.465000", "164053.465000", "164054.465000", "164055.465000", "164056.465000", "164057.465000", "164058.465000", "164059.465000", "164100.465000", "164101.465000", "164102.465000", "164103.465000", "164104.465000", "164105.465000", "164106.465000", "164107.465000", "164108.465000", "164109.465000", "164110.465000", "164111.465000", "164112.465000", "164113.465000", "164114.465000", "164115.465000", "164116.465000", "164117.465000", "164118.465000", "164119.465000", "164120.465000", "164121.465000", "164122.465000", "164123.465000", "164124.465000", "164125.465000", "164126.465000", "164127.465000", "164128.465000", "164129.465000", "164130.465000", "164131.465000", "164132.465000", "164133.465000", "164134.465000", "164135.465000", "164136.465000", "164137.465000", "164138.465000", "164139.465000", "164140.465000", "164141.465000", "164142.465000", "164143.465000", "164144.465000", "164145.465000", "164146.465000", "164147.465000", "164148.465000", "164149.465000", "164150.465000", "164151.465000", "164152.465000", "164153.465000", "164154.465000", "164155.465000", "164156.465000", "164157.465000", "164158.465000", "164159.465000", "164200.465000", "164201.465000", "164202.465000", "164203.465000", "164204.465000", "164205.465000", "164206.465000", "164207.465000", "164208.465000", "164209.465000", "164210.465000", "164211.465000", "164212.465000", "164213.465000", "164214.465000", "164215.465000", "164216.465000", "164217.465000", "164218.465000", "164219.465000", "164220.465000", "164221.465000", "164222.465000", "164223.465000", "164224.465000", "164225.465000", "164226.465000", "164227.465000", "164228.465000", "164229.465000", "164230.465000", "164231.465000", "164232.465000", "164233.465000", "164234.465000", "164235.465000", "164236.465000", "164237.465000", "164238.465000", "164239.465000", "164240.465000", "164241.465000", "164242.465000", "164243.465000", "164244.465000", "164245.465000", "164246.465000", "164247.465000", "164248.465000", "164249.465000", "164250.465000", "164251.465000", "164252.465000", "164253.465000", "164254.465000", "164255.465000", "164256.465000", "164257.465000", "164258.465000", "164259.465000", "164300.465000", "164301.465000", "164302.465000", "164303.465000", "164304.465000", "164305.465000", "164306.465000", "164307.465000", "164308.465000", "164309.465000", "164310.465000", "164311.465000", "164312.465000", "164313.465000", "164314.465000", "164315.465000"],
      "ContentTime": ["164058.517000", "164059.109000", "164059.837000", "164100.491000", "164101.254000", "164101.946000", "164102.649000", "164103.333000", "164104.072000", "164104.741000", "164105.479000", "164106.126000", "164106.876000", "164107.601000", "164108.409000", "164109.073000", "164109.801000", "164110.467000", "164111.199000", "164111.863000", "164112.587000", "164113.329000", "164114.049000", "164114.815000", "164115.460000", "164116.213000", "164116.892000", "164117.599000", "164118.289000", "164118.980000", "164119.698000", "164120.388000", "164121.121000", "164121.799000", "164122.489000", "164123.202000", "164123.869000", "164124.622000", "164125.291000", "164126.065000", "164126.679000", "164127.435000", "164128.131000", "164128.838000", "164129.500000", "164130.247000", "164130.886000", "164131.633000", "164132.295000", "164133.099000", "164133.750000", "164134.435000", "164135.148000", "164135.810000", "164136.580000", "164137.282000", "164138.046000", "164138.691000", "164139.439000", "164140.118000", "164140.842000", "164141.510000", "164142.298000", "164142.931000", "164143.723000", "164144.374000", "164145.144000", "164145.800000", "164146.542000", "164147.175000", "164147.928000", "164148.605000", "164149.348000", "164150.010000", "164150.735000", "164151.413000", "164152.121000", "164152.817000", "164153.530000", "164154.221000", "164154.963000", "164155.681000", "164156.366000", "164157.103000", "164157.799000", "164158.506000", "164159.265000", "164159.910000", "164200.651000", "164201.336000", "164202.106000", "164202.745000", "164203.453000", "164204.167000", "164204.873000", "164205.581000", "164206.277000", "164206.973000", "164207.715000", "164208.395000", "164209.136000", "164209.793000", "164210.493000", "164211.286000", "164211.904000", "164212.593000", "164213.317000", "164213.996000", "164214.790000", "164215.555000", "164216.216000", "164217.320000", "164217.673000", "164218.369000", "164219.083000", "164219.745000", "164220.486000", "164221.148000", "164221.924000", "164222.564000", "164223.317000", "164223.984000", "164224.715000", "164225.405000", "164226.124000", "164226.826000", "164227.573000", "164228.337000", "164229.022000", "164229.741000", "164230.454000", "164231.139000", "164231.882000", "164232.532000", "164233.319000", "164233.981000", "164234.740000", "164235.420000", "164236.173000", "164236.823000", "164237.588000", "164238.244000", "164238.974000", "164239.659000", "164240.429000", "164241.137000", "164241.867000", "164242.529000", "164243.282000", "164243.961000", "164244.783000", "164245.353000", "164246.112000", "164246.751000", "164247.505000", "164248.155000", "164248.885000", "164249.605000", "164250.307000", "164251.020000", "164251.677000", "164252.430000", "164253.117000", "164253.817000", "164254.495000", "164255.272000", "164255.917000", "164256.607000", "164257.308000", "164258.034000", "164258.701000", "164259.467000", "164300.133000", "164300.869000", "164301.560000", "164302.315000", "164303.021000", "164303.689000", "164304.419000", "164305.189000", "164306.183000", "164307.268000", "164308.174000", "164309.184000", "164310.182000", "164311.175000", "164312.179000", "164313.172000", "164314.176000", "164315.186000", "164316.190000", "164317.178000"],
      "InstanceCreationTime": ["164058.517000", "164059.109000", "164059.837000", "164100.491000", "164101.254000", "164101.946000", "164102.649000", "164103.333000", "164104.072000", "164104.741000", "164105.479000", "164106.126000", "164106.876000", "164107.601000", "164108.409000", "164109.073000", "164109.801000", "164110.467000", "164111.199000", "164111.863000", "164112.587000", "164113.329000", "164114.049000", "164114.815000", "164115.460000", "164116.213000", "164116.892000", "164117.599000", "164118.289000", "164118.980000", "164119.698000", "164120.388000", "164121.121000", "164121.799000", "164122.489000", "164123.202000", "164123.869000", "164124.622000", "164125.291000", "164126.065000", "164126.679000", "164127.435000", "164128.131000", "164128.838000", "164129.500000", "164130.247000", "164130.886000", "164131.633000", "164132.295000", "164133.099000", "164133.750000", "164134.435000", "164135.148000", "164135.810000", "164136.580000", "164137.282000", "164138.046000", "164138.691000", "164139.439000", "164140.118000", "164140.842000", "164141.510000", "164142.298000", "164142.931000", "164143.723000", "164144.374000", "164145.144000", "164145.800000", "164146.542000", "164147.175000", "164147.928000", "164148.605000", "164149.348000", "164150.010000", "164150.735000", "164151.413000", "164152.121000", "164152.817000", "164153.530000", "164154.221000", "164154.963000", "164155.681000", "164156.366000", "164157.103000", "164157.799000", "164158.506000", "164159.265000", "164159.910000", "164200.651000", "164201.336000", "164202.106000", "164202.745000", "164203.453000", "164204.167000", "164204.873000", "164205.581000", "164206.277000", "164206.973000", "164207.715000", "164208.395000", "164209.136000", "164209.793000", "164210.493000", "164211.286000", "164211.904000", "164212.593000", "164213.317000", "164213.996000", "164214.790000", "164215.555000", "164216.216000", "164217.320000", "164217.673000", "164218.369000", "164219.083000", "164219.745000", "164220.486000", "164221.148000", "164221.924000", "164222.564000", "164223.317000", "164223.984000", "164224.715000", "164225.405000", "164226.124000", "164226.826000", "164227.573000", "164228.337000", "164229.022000", "164229.741000", "164230.454000", "164231.139000", "164231.882000", "164232.532000", "164233.319000", "164233.981000", "164234.740000", "164235.420000", "164236.173000", "164236.823000", "164237.588000", "164238.244000", "164238.974000", "164239.659000", "164240.429000", "164241.137000", "164241.867000", "164242.529000", "164243.282000", "164243.961000", "164244.783000", "164245.353000", "164246.112000", "164246.751000", "164247.505000", "164248.155000", "164248.885000", "164249.605000", "164250.307000", "164251.020000", "164251.677000", "164252.430000", "164253.117000", "164253.817000", "164254.495000", "164255.272000", "164255.917000", "164256.607000", "164257.308000", "164258.034000", "164258.701000", "164259.467000", "164300.133000", "164300.869000", "164301.560000", "164302.315000", "164303.021000", "164303.689000", "164304.419000", "164305.189000", "164306.183000", "164307.268000", "164308.174000", "164309.184000", "164310.182000", "164311.175000", "164312.179000", "164313.172000", "164314.176000", "164315.186000", "164316.190000", "164317.178000"],
      "InstanceNumber": [1, 2, 3, 4, 5, 6, 7, 8, 9, 10, 11, 12, 13, 14, 15, 16, 17, 18, 19, 20, 21, 22, 23, 24, 25, 26, 27, 28, 29, 30, 31, 32, 33, 34, 35, 36, 37, 38, 39, 40, 41, 42, 43, 44, 45, 46, 47, 48, 49, 50, 51, 52, 53, 54, 55, 56, 57, 58, 59, 60, 61, 62, 63, 64, 65, 66, 67, 68, 69, 70, 71, 72, 73, 74, 75, 76, 77, 78, 79, 80, 81, 82, 83, 84, 85, 86, 87, 88, 89, 90, 91, 92, 93, 94, 95, 96, 97, 98, 99, 100, 101, 102, 103, 104, 105, 106, 107, 108, 109, 110, 111, 112, 113, 114, 115, 116, 117, 118, 119, 120, 121, 122, 123, 124, 125, 126, 127, 128, 129, 130, 131, 132, 133, 134, 135, 136, 137, 138, 139, 140, 141, 142, 143, 144, 145, 146, 147, 148, 149, 150, 151, 152, 153, 154, 155, 156, 157, 158, 159, 160, 161, 162, 163, 164, 165, 166, 167, 168, 169, 170, 171, 172, 173, 174, 175, 176, 177, 178, 179, 180, 181, 182, 183, 184, 185, 186, 187, 188, 189, 190, 191, 192],
      "LargestImagePixelValue": [39929, 38992, 38678, 38044, 37804, 37680, 37864, 37829, 38360, 37653, 38076, 37307, 37827, 37415, 37826, 37380, 37533, 37692, 36936, 37958, 37736, 37675, 37072, 37341, 37685, 37367, 37314, 37300, 37662, 37961, 37543, 37711, 37717, 37414, 37451, 38030, 37621, 37264, 37477, 36998, 37277, 37441, 37325, 37405, 37329, 37401, 37642, 37545, 37260, 37184, 37240, 37674, 37217, 37008, 37448, 37673, 37030, 37523, 37573, 37153, 37244, 37806, 37364, 37376, 37103, 37972, 37274, 37963, 37283, 37174, 37729, 37604, 37731, 37973, 37339, 37405, 37093, 37609, 37787, 37724, 37809, 37746, 37439, 37807, 38111, 37877, 38078, 37708, 37729, 37704, 37949, 37657, 37711, 37141, 37284, 37553, 37344, 37850, 37991, 37471, 37746, 37649, 37761, 37718, 37811, 37632, 37743, 37668, 37982, 37910, 37459, 37685, 37959, 37514, 37568, 37740, 37446, 37522, 37581, 37066, 37900, 37788, 37873, 37050, 36837, 37803, 37779, 37537, 37915, 38044, 37571, 37836, 37394, 36997, 37378, 37552, 37182, 37654, 37664, 37641, 37475, 37739, 37912, 37441, 37539, 37542, 37076, 37946, 37440, 37493, 37734, 37607, 37737, 37914, 37699, 37431, 38185, 37702, 37547, 37416, 37442, 37817, 37889, 37213, 37335, 37911, 37706, 37517, 37490, 37552, 37880, 37673, 37532, 38031, 37358, 38033, 37455, 37438, 38158, 37847, 38002, 37771, 37804, 38048, 38159, 38403, 37899, 37881, 37926, 37980, 37932, 37567],
      "WindowCenter": [10343.0, 10343.0, 10328.0, 10322.0, 10351.0, 10376.0, 10382.0, 10344.0, 10355.0, 10385.0, 10358.0, 10344.0, 10384.0, 10401.0, 10430.0, 10420.0, 10377.0, 10395.0, 10395.0, 10371.0, 10352.0, 10382.0, 10392.0, 10398.0, 10392.0, 10345.0, 10357.0, 10363.0, 10368.0, 10374.0, 10319.0, 10328.0, 10345.0, 10349.0, 10350.0, 10321.0, 10320.0, 10333.0, 10351.0, 10348.0, 10349.0, 10325.0, 10298.0, 10305.0, 10315.0, 10314.0, 10320.0, 10299.0, 10257.0, 10264.0, 10286.0, 10302.0, 10309.0, 10318.0, 10298.0, 10277.0, 10275.0, 10289.0, 10315.0, 10327.0, 10334.0, 10323.0, 10293.0, 10309.0, 10328.0, 10349.0, 10355.0, 10344.0, 10319.0, 10334.0, 10350.0, 10373.0, 10383.0, 10372.0, 10339.0, 10347.0, 10359.0, 10376.0, 10346.0, 10348.0, 10348.0, 10322.0, 10338.0, 10355.0, 10364.0, 10330.0, 10345.0, 10367.0, 10383.0, 10393.0, 10355.0, 10339.0, 10347.0, 10351.0, 10352.0, 10352.0, 10318.0, 10304.0, 10317.0, 10325.0, 10339.0, 10350.0, 10326.0, 10304.0, 10328.0, 10354.0, 10364.0, 10358.0, 10320.0, 10329.0, 10341.0, 10355.0, 10364.0, 10368.0, 10318.0, 10315.0, 10327.0, 10333.0, 10341.0, 10337.0, 10349.0, 10307.0, 10297.0, 10312.0, 10321.0, 10340.0, 10313.0, 10306.0, 10328.0, 10341.0, 10331.0, 10302.0, 10306.0, 10323.0, 10346.0, 10355.0, 10313.0, 10321.0, 10339.0, 10350.0, 10359.0, 10331.0, 10320.0, 10323.0, 10293.0, 10305.0, 10331.0, 10346.0, 10348.0, 10352.0, 10314.0, 10304.0, 10327.0, 10336.0, 10338.0, 10342.0, 10314.0, 10304.0, 10328.0, 10334.0, 10352.0, 10332.0, 10314.0, 10324.0, 10338.0, 10329.0, 10295.0, 10311.0, 10327.0, 10331.0, 10294.0, 10302.0, 10318.0, 10326.0, 10332.0, 10311.0, 10296.0, 10308.0, 10321.0, 10330.0, 10330.0, 10332.0, 10308.0, 10285.0, 10309.0, 10327.0, 10331.0, 10338.0, 10320.0, 10292.0, 10317.0, 10333.0],
      "WindowWidth": [22105.0, 22108.0, 22070.0, 22058.0, 22129.0, 22189.0, 22198.0, 22111.0, 22135.0, 22209.0, 22142.0, 22116.0, 22210.0, 22260.0, 22327.0, 22299.0, 22199.0, 22240.0, 22244.0, 22174.0, 22131.0, 22200.0, 22230.0, 22243.0, 22216.0, 22114.0, 22147.0, 22162.0, 22172.0, 22179.0, 22054.0, 22079.0, 22119.0, 22128.0, 22130.0, 22053.0, 22055.0, 22092.0, 22135.0, 22131.0, 22133.0, 22062.0, 22001.0, 22023.0, 22043.0, 22042.0, 22052.0, 22000.0, 21910.0, 21927.0, 21978.0, 22018.0, 22038.0, 22058.0, 22008.0, 21957.0, 21959.0, 21993.0, 22051.0, 22080.0, 22098.0, 22065.0, 22001.0, 22043.0, 22090.0, 22138.0, 22154.0, 22123.0, 22065.0, 22101.0, 22141.0, 22187.0, 22210.0, 22180.0, 22101.0, 22125.0, 22153.0, 22190.0, 22116.0, 22126.0, 22121.0, 22064.0, 22104.0, 22146.0, 22164.0, 22084.0, 22125.0, 22179.0, 22216.0, 22238.0, 22138.0, 22101.0, 22124.0, 22133.0, 22135.0, 22135.0, 22048.0, 22014.0, 22049.0, 22073.0, 22106.0, 22135.0, 22073.0, 22023.0, 22083.0, 22143.0, 22166.0, 22146.0, 22055.0, 22083.0, 22112.0, 22145.0, 22167.0, 22175.0, 22058.0, 22054.0, 22082.0, 22098.0, 22114.0, 22103.0, 22128.0, 22025.0, 22004.0, 22045.0, 22069.0, 22109.0, 22039.0, 22023.0, 22078.0, 22104.0, 22079.0, 22013.0, 22030.0, 22072.0, 22125.0, 22148.0, 22051.0, 22067.0, 22111.0, 22136.0, 22155.0, 22079.0, 22057.0, 22066.0, 21992.0, 22027.0, 22090.0, 22121.0, 22127.0, 22133.0, 22038.0, 22021.0, 22074.0, 22095.0, 22103.0, 22113.0, 22043.0, 22024.0, 22083.0, 22105.0, 22143.0, 22089.0, 22046.0, 22074.0, 22103.0, 22075.0, 21995.0, 22038.0, 22075.0, 22080.0, 21993.0, 22015.0, 22054.0, 22073.0, 22087.0, 22034.0, 22003.0, 22039.0, 22069.0, 22088.0, 22091.0, 22097.0, 22037.0, 21982.0, 22039.0, 22081.0, 22091.0, 22106.0, 22054.0, 21991.0, 22055.0, 22096.0]
    },
    "slices": {}
  },
  "NumberOfVolumes": 192
}