{
  "aor": 0.0006332460732984294,
  "aqi": 0.004340667539267016,
  "bids_meta": {
    "AcquisitionMatrixPE": 104,
    "AcquisitionNumber": 1,
    "AcquisitionTime": "16:00:56.247500",
    "BandwidthPerPixelPhaseEncode": 16.578,
    "BaseResolution": 104,
    "BodyPartExamined": "BRAIN",
    "CogAtlasID": "TODO",
    "ConsistencyInfo": "N4_VE11C_LATEST_20160120",
    "ConversionSoftware": "dcm2niix",
    "ConversionSoftwareVersion": "v1.0.20190902",
    "DerivedVendorReportedEchoSpacing": 0.000580009,
    "DeviceSerialNumber": "166018",
    "DwellTime": 2.1e-06,
    "EchoTime": 0.037,
    "EchoTrainLength": 104,
    "EffectiveEchoSpacing": 0.000580009,
    "FlipAngle": 68,
    "ImageComments": "Unaliased_MB6_PE3_LB",
    "ImageOrientationPatientDICOM": [
      0.998865,
      0.0428984,
      0.0206747,
      -0.0425635,
      0.99896,
      -0.0163773
    ],
    "ImageType": [
      "ORIGINAL",
      "PRIMARY",
      "M",
      "MB",
      "ND",
      "MOSAIC"
    ],
    "ImagingFrequency": 123.191,
    "InPlanePhaseEncodingDirectionDICOM": "COL",
    "InstitutionAddress": "Washington_Place_6_NYC_NYC_US_10003",
    "InstitutionName": "NYU_-_CBI",
    "InstitutionalDepartmentName": "Department",
    "MRAcquisitionType": "2D",
    "MagneticFieldStrength": 3,
    "Manufacturer": "Siemens",
    "ManufacturersModelName": "Prisma",
    "Modality": "MR",
    "MultibandAccelerationFactor": 6,
    "NumberOfVolumes": 192,
    "PartialFourier": 1,
    "PatientPosition": "HFS",
    "PercentPhaseFOV": 100,
    "PhaseEncodingDirection": "j",
    "PhaseEncodingSteps": 104,
    "PhaseResolution": 1,
    "PixelBandwidth": 2290,
    "ProcedureStepDescription": "Investigators_Winawer",
    "ProtocolName": "cmrr_mbepi_s6_2mm_66sl_PA_TR1.0",
    "PulseSequenceDetails": "%CustomerSeq%_cmrr_mbep2d_bold",
    "ReceiveCoilActiveElements": "HC1-7",
    "ReceiveCoilName": "HeadNeck_64",
    "ReconMatrixPE": 104,
    "RepetitionTime": 1,
    "SAR": 0.0673717,
    "ScanOptions": "FS",
    "ScanningSequence": "EP",
    "SequenceName": "epfid2d1_104",
    "SequenceVariant": "SK_SS",
    "SeriesDescription": "cmrr_mbepi_s6_2mm_66sl_PA_TR1.0",
    "SeriesNumber": 12,
    "ShimSetting": [
      277,
      -12571,
      -8534,
      278,
      -14,
      -5,
      51,
      -2
    ],
    "SliceThickness": 2,
    "SliceTiming": [
      0,
      0.5325,
      0.0875,
      0.6225,
      0.1775,
      0.7125,
      0.265,
      0.8,
      0.355,
      0.89,
      0.445,
      0,
      0.5325,
      0.0875,
      0.6225,
      0.1775,
      0.7125,
      0.265,
      0.8,
      0.355,
      0.89,
      0.445,
      0,
      0.5325,
      0.0875,
      0.6225,
      0.1775,
      0.7125,
      0.265,
      0.8,
      0.355,
      0.89,
      0.445,
      0,
      0.5325,
      0.0875,
      0.6225,
      0.1775,
      0.7125,
      0.265,
      0.8,
      0.355,
      0.89,
      0.445,
      0,
      0.5325,
      0.0875,
      0.6225,
      0.1775,
      0.7125,
      0.265,
      0.8,
      0.355,
      0.89,
      0.445,
      0,
      0.5325,
      0.0875,
      0.6225,
      0.1775,
      0.7125,
      0.265,
      0.8,
      0.355,
      0.89,
      0.445
    ],
    "SoftwareVersions": "syngo_MR_E11",
    "SpacingBetweenSlices": 2,
    "StationName": "AWP166018",
    "TaskName": "prf",
    "TotalReadoutTime": 0.0597409,
    "TxRefAmp": 205.563,
    "WipMemBlock": "d1b333fc-7764-49b6-8d41-0a7736b7bca3||Sequence: ve11c/master r/ab69a6c; Apr 19 2017 09:47:47 by eja",
    "acq_id": "PA",
    "dataset": "unknown",
    "dcmmeta_affine": [
      [
        -1.9977309703826904,
        -0.08512690663337708,
        0.0427115261554718,
        111.0504379272461
      ],
      [
        -0.0857967883348465,
        1.9979190826416016,
        -0.030957387760281563,
        -83.35585021972656
      ],
      [
        0.04134942963719368,
        0.03275452181696892,
        1.999304175376892,
        -41.87906265258789
      ],
      [
        0.0,
        0.0,
        0.0,
        1.0
      ]
    ],
    "dcmmeta_reorient_transform": [
      [
        0.0,
        -1.0,
        0.0,
        103.0
      ],
      [
        1.0,
        0.0,
        0.0,
        0.0
      ],
      [
        0.0,
        0.0,
        1.0,
        0.0
      ],
      [
        0.0,
        0.0,
        0.0,
        1.0
      ]
    ],
    "dcmmeta_shape": [
      104,
      104,
      66,
      192
    ],
    "dcmmeta_slice_dim": 2,
    "dcmmeta_version": 0.6,
    "global": {
      "const": {
        "AccessionNumber": "j9yLnzuo",
        "AcquisitionMatrix": [
          104,
          0,
          0,
          104
        ],
        "AngioFlag": "N",
        "BitsAllocated": 16,
        "BitsStored": 16,
        "BodyPartExamined": "BRAIN",
        "Columns": 936,
        "EchoNumbers": 1,
        "EchoTime": 37.0,
        "EchoTrainLength": 104,
        "FlipAngle": 68.0,
        "HighBit": 15,
        "ImageOrientationPatient": [
          0.99886549836743,
          0.04289839512642,
          0.02067471563915,
          -0.0425634536089,
          0.99895952756743,
          -0.0163772616497
        ],
        "ImagePositionPatient": [
          -897.92566420561,
          -989.25560713314,
          -42.080827578655
        ],
        "ImageType": [
          "ORIGINAL",
          "PRIMARY",
          "M",
          "MB",
          "ND",
          "MOSAIC"
        ],
        "ImagedNucleus": "1H",
        "ImagingFrequency": 123.191281,
        "InPlanePhaseEncodingDirection": "COL",
        "MRAcquisitionType": "2D",
        "MagneticFieldStrength": 3.0,
        "Manufacturer": "SIEMENS",
        "ManufacturerModelName": "Prisma",
        "Modality": "MR",
        "NumberOfAverages": 1.0,
        "NumberOfPhaseEncodingSteps": 104,
        "PercentPhaseFieldOfView": 100.0,
        "PercentSampling": 100.0,
        "PerformedProcedureStepStartTime": "153632.718000",
        "PhotometricInterpretation": "MONOCHROME2",
        "PixelBandwidth": 2290.0,
        "PixelRepresentation": 0,
        "PixelSpacing": [
          2.0,
          2.0
        ],
        "ProtocolName": "cmrr_mbepi_s6_2mm_66sl_PA_TR1.0",
        "RepetitionTime": 1000.0,
        "Rows": 936,
        "SAR": 0.06737168448902,
        "SamplesPerPixel": 1,
        "ScanOptions": "FS",
        "ScanningSequence": "EP",
        "SequenceName": "epfid2d1_104",
        "SequenceVariant": [
          "SK",
          "SS"
        ],
        "SeriesDescription": "cmrr_mbepi_s6_2mm_66sl_PA_TR1.0",
        "SeriesNumber": 12,
        "SeriesTime": "160216.546000",
        "SliceLocation": -38.202686089358,
        "SliceThickness": 2.0,
        "SmallestImagePixelValue": 0,
        "SoftwareVersions": "syngo MR E11",
        "SpacingBetweenSlices": 1.9999999787566,
        "SpecificCharacterSet": "ISO_IR 100",
        "StudyID": "1",
        "StudyTime": "153632.662000",
        "TransmitCoilName": "Body",
        "VariableFlipAngleFlag": "N",
        "WindowCenterWidthExplanation": "Algo1",
        "dBdt": 0.0
      },
      "slices": {}
    },
    "modality": "bold",
    "run_id": 2,
    "session_id": "nyu3t01",
    "subject_id": "wlsubj007",
    "task_id": "prf",
    "time": {
      "samples": {
        "AcquisitionNumber": [
          1,
          2,
          3,
          4,
          5,
          6,
          7,
          8,
          9,
          10,
          11,
          12,
          13,
          14,
          15,
          16,
          17,
          18,
          19,
          20,
          21,
          22,
          23,
          24,
          25,
          26,
          27,
          28,
          29,
          30,
          31,
          32,
          33,
          34,
          35,
          36,
          37,
          38,
          39,
          40,
          41,
          42,
          43,
          44,
          45,
          46,
          47,
          48,
          49,
          50,
          51,
          52,
          53,
          54,
          55,
          56,
          57,
          58,
          59,
          60,
          61,
          62,
          63,
          64,
          65,
          66,
          67,
          68,
          69,
          70,
          71,
          72,
          73,
          74,
          75,
          76,
          77,
          78,
          79,
          80,
          81,
          82,
          83,
          84,
          85,
          86,
          87,
          88,
          89,
          90,
          91,
          92,
          93,
          94,
          95,
          96,
          97,
          98,
          99,
          100,
          101,
          102,
          103,
          104,
          105,
          106,
          107,
          108,
          109,
          110,
          111,
          112,
          113,
          114,
          115,
          116,
          117,
          118,
          119,
          120,
          121,
          122,
          123,
          124,
          125,
          126,
          127,
          128,
          129,
          130,
          131,
          132,
          133,
          134,
          135,
          136,
          137,
          138,
          139,
          140,
          141,
          142,
          143,
          144,
          145,
          146,
          147,
          148,
          149,
          150,
          151,
          152,
          153,
          154,
          155,
          156,
          157,
          158,
          159,
          160,
          161,
          162,
          163,
          164,
          165,
          166,
          167,
          168,
          169,
          170,
          171,
          172,
          173,
          174,
          175,
          176,
          177,
          178,
          179,
          180,
          181,
          182,
          183,
          184,
          185,
          186,
          187,
          188,
          189,
          190,
          191,
          192
        ],
        "AcquisitionTime": [
          "160056.247500",
          "160057.247500",
          "160058.247500",
          "160059.247500",
          "160100.247500",
          "160101.247500",
          "160102.247500",
          "160103.247500",
          "160104.247500",
          "160105.247500",
          "160106.247500",
          "160107.247500",
          "160108.247500",
          "160109.247500",
          "160110.247500",
          "160111.247500",
          "160112.247500",
          "160113.247500",
          "160114.247500",
          "160115.247500",
          "160116.247500",
          "160117.247500",
          "160118.247500",
          "160119.247500",
          "160120.247500",
          "160121.247500",
          "160122.247500",
          "160123.247500",
          "160124.247500",
          "160125.247500",
          "160126.247500",
          "160127.247500",
          "160128.247500",
          "160129.247500",
          "160130.247500",
          "160131.247500",
          "160132.247500",
          "160133.247500",
          "160134.247500",
          "160135.247500",
          "160136.247500",
          "160137.247500",
          "160138.247500",
          "160139.247500",
          "160140.247500",
          "160141.247500",
          "160142.247500",
          "160143.247500",
          "160144.247500",
          "160145.247500",
          "160146.247500",
          "160147.247500",
          "160148.247500",
          "160149.247500",
          "160150.247500",
          "160151.247500",
          "160152.247500",
          "160153.247500",
          "160154.247500",
          "160155.247500",
          "160156.247500",
          "160157.247500",
          "160158.247500",
          "160159.247500",
          "160200.247500",
          "160201.247500",
          "160202.247500",
          "160203.247500",
          "160204.247500",
          "160205.247500",
          "160206.247500",
          "160207.247500",
          "160208.247500",
          "160209.247500",
          "160210.247500",
          "160211.247500",
          "160212.247500",
          "160213.247500",
          "160214.247500",
          "160215.247500",
          "160216.247500",
          "160217.247500",
          "160218.247500",
          "160219.247500",
          "160220.247500",
          "160221.247500",
          "160222.247500",
          "160223.247500",
          "160224.247500",
          "160225.247500",
          "160226.247500",
          "160227.247500",
          "160228.247500",
          "160229.247500",
          "160230.247500",
          "160231.247500",
          "160232.247500",
          "160233.247500",
          "160234.247500",
          "160235.247500",
          "160236.247500",
          "160237.247500",
          "160238.247500",
          "160239.247500",
          "160240.247500",
          "160241.247500",
          "160242.247500",
          "160243.247500",
          "160244.247500",
          "160245.247500",
          "160246.247500",
          "160247.247500",
          "160248.247500",
          "160249.247500",
          "160250.247500",
          "160251.247500",
          "160252.247500",
          "160253.247500",
          "160254.247500",
          "160255.247500",
          "160256.247500",
          "160257.247500",
          "160258.247500",
          "160259.247500",
          "160300.247500",
          "160301.247500",
          "160302.247500",
          "160303.247500",
          "160304.247500",
          "160305.247500",
          "160306.247500",
          "160307.247500",
          "160308.247500",
          "160309.247500",
          "160310.247500",
          "160311.247500",
          "160312.247500",
          "160313.247500",
          "160314.247500",
          "160315.247500",
          "160316.247500",
          "160317.247500",
          "160318.247500",
          "160319.247500",
          "160320.247500",
          "160321.247500",
          "160322.247500",
          "160323.247500",
          "160324.247500",
          "160325.247500",
          "160326.247500",
          "160327.247500",
          "160328.247500",
          "160329.247500",
          "160330.247500",
          "160331.247500",
          "160332.247500",
          "160333.247500",
          "160334.247500",
          "160335.247500",
          "160336.247500",
          "160337.247500",
          "160338.247500",
          "160339.247500",
          "160340.247500",
          "160341.247500",
          "160342.247500",
          "160343.247500",
          "160344.247500",
          "160345.247500",
          "160346.247500",
          "160347.247500",
          "160348.247500",
          "160349.247500",
          "160350.247500",
          "160351.247500",
          "160352.247500",
          "160353.247500",
          "160354.247500",
          "160355.247500",
          "160356.247500",
          "160357.247500",
          "160358.247500",
          "160359.247500",
          "160400.247500",
          "160401.247500",
          "160402.247500",
          "160403.247500",
          "160404.247500",
          "160405.247500",
          "160406.247500",
          "160407.247500"
        ],
        "ContentTime": [
          "160216.548000",
          "160216.552000",
          "160216.555000",
          "160216.558000",
          "160216.561000",
          "160216.564000",
          "160216.567000",
          "160216.570000",
          "160216.573000",
          "160216.575000",
          "160216.578000",
          "160216.581000",
          "160216.584000",
          "160216.596000",
          "160216.599000",
          "160216.602000",
          "160216.605000",
          "160216.607000",
          "160216.610000",
          "160216.613000",
          "160216.616000",
          "160216.619000",
          "160216.628000",
          "160216.631000",
          "160216.634000",
          "160216.637000",
          "160216.640000",
          "160216.649000",
          "160216.652000",
          "160216.655000",
          "160216.658000",
          "160216.661000",
          "160216.664000",
          "160216.667000",
          "160216.670000",
          "160236.521000",
          "160236.524000",
          "160236.527000",
          "160236.539000",
          "160236.542000",
          "160236.545000",
          "160236.548000",
          "160236.551000",
          "160236.553000",
          "160236.556000",
          "160236.559000",
          "160236.562000",
          "160236.565000",
          "160236.568000",
          "160236.571000",
          "160236.574000",
          "160236.577000",
          "160236.579000",
          "160236.582000",
          "160236.585000",
          "160236.588000",
          "160236.599000",
          "160236.601000",
          "160236.604000",
          "160236.607000",
          "160236.610000",
          "160236.613000",
          "160236.616000",
          "160236.619000",
          "160256.521000",
          "160256.524000",
          "160256.527000",
          "160256.530000",
          "160256.532000",
          "160256.536000",
          "160256.540000",
          "160256.543000",
          "160256.546000",
          "160256.549000",
          "160256.552000",
          "160256.555000",
          "160256.558000",
          "160256.561000",
          "160256.564000",
          "160256.566000",
          "160256.569000",
          "160256.572000",
          "160256.575000",
          "160256.578000",
          "160256.581000",
          "160256.584000",
          "160256.587000",
          "160256.590000",
          "160256.593000",
          "160256.596000",
          "160256.599000",
          "160256.602000",
          "160316.521000",
          "160316.524000",
          "160316.527000",
          "160316.530000",
          "160316.533000",
          "160316.535000",
          "160316.538000",
          "160316.541000",
          "160316.544000",
          "160316.547000",
          "160316.550000",
          "160316.552000",
          "160316.555000",
          "160316.558000",
          "160316.561000",
          "160316.564000",
          "160316.567000",
          "160316.570000",
          "160316.573000",
          "160316.576000",
          "160316.579000",
          "160316.582000",
          "160316.585000",
          "160316.587000",
          "160316.591000",
          "160316.593000",
          "160316.596000",
          "160316.599000",
          "160336.521000",
          "160336.524000",
          "160336.527000",
          "160336.530000",
          "160336.532000",
          "160336.535000",
          "160336.538000",
          "160336.541000",
          "160336.544000",
          "160336.547000",
          "160336.549000",
          "160336.552000",
          "160336.570000",
          "160336.573000",
          "160336.576000",
          "160336.579000",
          "160336.582000",
          "160336.585000",
          "160336.587000",
          "160336.590000",
          "160336.593000",
          "160336.596000",
          "160336.599000",
          "160336.602000",
          "160336.605000",
          "160336.607000",
          "160336.610000",
          "160336.613000",
          "160356.520000",
          "160356.523000",
          "160356.526000",
          "160356.529000",
          "160356.532000",
          "160356.535000",
          "160356.537000",
          "160356.540000",
          "160356.543000",
          "160356.546000",
          "160356.549000",
          "160356.552000",
          "160356.555000",
          "160356.558000",
          "160356.561000",
          "160356.564000",
          "160356.567000",
          "160356.570000",
          "160356.572000",
          "160356.575000",
          "160356.578000",
          "160356.581000",
          "160356.584000",
          "160356.587000",
          "160356.590000",
          "160356.593000",
          "160356.596000",
          "160356.599000",
          "160409.344000",
          "160409.347000",
          "160409.350000",
          "160409.353000",
          "160409.356000",
          "160409.359000",
          "160409.361000",
          "160409.364000",
          "160409.367000",
          "160409.370000",
          "160409.373000",
          "160409.376000",
          "160409.379000",
          "160409.382000",
          "160409.385000",
          "160409.387000"
        ],
        "InstanceCreationTime": [
          "160216.548000",
          "160216.552000",
          "160216.555000",
          "160216.558000",
          "160216.561000",
          "160216.564000",
          "160216.567000",
          "160216.570000",
          "160216.573000",
          "160216.575000",
          "160216.578000",
          "160216.581000",
          "160216.584000",
          "160216.596000",
          "160216.599000",
          "160216.602000",
          "160216.605000",
          "160216.607000",
          "160216.610000",
          "160216.613000",
          "160216.616000",
          "160216.619000",
          "160216.628000",
          "160216.631000",
          "160216.634000",
          "160216.637000",
          "160216.640000",
          "160216.649000",
          "160216.652000",
          "160216.655000",
          "160216.658000",
          "160216.661000",
          "160216.664000",
          "160216.667000",
          "160216.670000",
          "160236.521000",
          "160236.524000",
          "160236.527000",
          "160236.539000",
          "160236.542000",
          "160236.545000",
          "160236.548000",
          "160236.551000",
          "160236.553000",
          "160236.556000",
          "160236.559000",
          "160236.562000",
          "160236.565000",
          "160236.568000",
          "160236.571000",
          "160236.574000",
          "160236.577000",
          "160236.579000",
          "160236.582000",
          "160236.585000",
          "160236.588000",
          "160236.599000",
          "160236.601000",
          "160236.604000",
          "160236.607000",
          "160236.610000",
          "160236.613000",
          "160236.616000",
          "160236.619000",
          "160256.521000",
          "160256.524000",
          "160256.527000",
          "160256.530000",
          "160256.532000",
          "160256.536000",
          "160256.540000",
          "160256.543000",
          "160256.546000",
          "160256.549000",
          "160256.552000",
          "160256.555000",
          "160256.558000",
          "160256.561000",
          "160256.564000",
          "160256.566000",
          "160256.569000",
          "160256.572000",
          "160256.575000",
          "160256.578000",
          "160256.581000",
          "160256.584000",
          "160256.587000",
          "160256.590000",
          "160256.593000",
          "160256.596000",
          "160256.599000",
          "160256.602000",
          "160316.521000",
          "160316.524000",
          "160316.527000",
          "160316.530000",
          "160316.533000",
          "160316.535000",
          "160316.538000",
          "160316.541000",
          "160316.544000",
          "160316.547000",
          "160316.550000",
          "160316.552000",
          "160316.555000",
          "160316.558000",
          "160316.561000",
          "160316.564000",
          "160316.567000",
          "160316.570000",
          "160316.573000",
          "160316.576000",
          "160316.579000",
          "160316.582000",
          "160316.585000",
          "160316.587000",
          "160316.591000",
          "160316.593000",
          "160316.596000",
          "160316.599000",
          "160336.521000",
          "160336.524000",
          "160336.527000",
          "160336.530000",
          "160336.532000",
          "160336.535000",
          "160336.538000",
          "160336.541000",
          "160336.544000",
          "160336.547000",
          "160336.549000",
          "160336.552000",
          "160336.570000",
          "160336.573000",
          "160336.576000",
          "160336.579000",
          "160336.582000",
          "160336.585000",
          "160336.587000",
          "160336.590000",
          "160336.593000",
          "160336.596000",
          "160336.599000",
          "160336.602000",
          "160336.605000",
          "160336.607000",
          "160336.610000",
          "160336.613000",
          "160356.520000",
          "160356.523000",
          "160356.526000",
          "160356.529000",
          "160356.532000",
          "160356.535000",
          "160356.537000",
          "160356.540000",
          "160356.543000",
          "160356.546000",
          "160356.549000",
          "160356.552000",
          "160356.555000",
          "160356.558000",
          "160356.561000",
          "160356.564000",
          "160356.567000",
          "160356.570000",
          "160356.572000",
          "160356.575000",
          "160356.578000",
          "160356.581000",
          "160356.584000",
          "160356.587000",
          "160356.590000",
          "160356.593000",
          "160356.596000",
          "160356.599000",
          "160409.344000",
          "160409.347000",
          "160409.350000",
          "160409.353000",
          "160409.356000",
          "160409.359000",
          "160409.361000",
          "160409.364000",
          "160409.367000",
          "160409.370000",
          "160409.373000",
          "160409.376000",
          "160409.379000",
          "160409.382000",
          "160409.385000",
          "160409.387000"
        ],
        "InstanceNumber": [
          1,
          2,
          3,
          4,
          5,
          6,
          7,
          8,
          9,
          10,
          11,
          12,
          13,
          14,
          15,
          16,
          17,
          18,
          19,
          20,
          21,
          22,
          23,
          24,
          25,
          26,
          27,
          28,
          29,
          30,
          31,
          32,
          33,
          34,
          35,
          36,
          37,
          38,
          39,
          40,
          41,
          42,
          43,
          44,
          45,
          46,
          47,
          48,
          49,
          50,
          51,
          52,
          53,
          54,
          55,
          56,
          57,
          58,
          59,
          60,
          61,
          62,
          63,
          64,
          65,
          66,
          67,
          68,
          69,
          70,
          71,
          72,
          73,
          74,
          75,
          76,
          77,
          78,
          79,
          80,
          81,
          82,
          83,
          84,
          85,
          86,
          87,
          88,
          89,
          90,
          91,
          92,
          93,
          94,
          95,
          96,
          97,
          98,
          99,
          100,
          101,
          102,
          103,
          104,
          105,
          106,
          107,
          108,
          109,
          110,
          111,
          112,
          113,
          114,
          115,
          116,
          117,
          118,
          119,
          120,
          121,
          122,
          123,
          124,
          125,
          126,
          127,
          128,
          129,
          130,
          131,
          132,
          133,
          134,
          135,
          136,
          137,
          138,
          139,
          140,
          141,
          142,
          143,
          144,
          145,
          146,
          147,
          148,
          149,
          150,
          151,
          152,
          153,
          154,
          155,
          156,
          157,
          158,
          159,
          160,
          161,
          162,
          163,
          164,
          165,
          166,
          167,
          168,
          169,
          170,
          171,
          172,
          173,
          174,
          175,
          176,
          177,
          178,
          179,
          180,
          181,
          182,
          183,
          184,
          185,
          186,
          187,
          188,
          189,
          190,
          191,
          192
        ],
        "LargestImagePixelValue": [
          37310,
          36304,
          35453,
          35444,
          35395,
          35074,
          35332,
          35602,
          35752,
          35687,
          35584,
          35358,
          36026,
          35601,
          35609,
          35481,
          35604,
          35510,
          35641,
          35855,
          35448,
          36123,
          35735,
          36348,
          35985,
          35533,
          35714,
          35822,
          35620,
          36254,
          35939,
          36245,
          36298,
          36242,
          36148,
          36360,
          36124,
          36235,
          36317,
          36449,
          35851,
          36308,
          36238,
          36270,
          36062,
          35733,
          35944,
          36160,
          35788,
          35731,
          35933,
          35782,
          36011,
          35610,
          36133,
          36517,
          36271,
          36562,
          36073,
          36278,
          35775,
          35256,
          36138,
          35825,
          35796,
          35436,
          35789,
          35251,
          35391,
          35636,
          35337,
          35453,
          35384,
          36033,
          35886,
          35634,
          35666,
          35848,
          35453,
          35639,
          35637,
          35800,
          35642,
          35695,
