{
  "aor": 0.0028774869109947643,
  "aqi": 0.014616039109947644,
  "bids_meta": {
    "AcquisitionMatrixPE": 104,
    "AcquisitionNumber": 1,
    "AcquisitionTime": "14:39:12.467500",
    "BandwidthPerPixelPhaseEncode": 16.297,
    "BaseResolution": 104,
    "BodyPartExamined": "BRAIN",
    "CogAtlasID": "doi:TODO",
    "ConsistencyInfo": "N4_VE11C_LATEST_20160120",
    "ConversionSoftware": "dcm2niix",
    "ConversionSoftwareVersion": "v1.0.20190902",
    "DerivedVendorReportedEchoSpacing": 0.000590009,
    "DeviceSerialNumber": "166018",
    "DwellTime": 2.1e-06,
    "EchoTime": 0.0376,
    "EchoTrainLength": 104,
    "EffectiveEchoSpacing": 0.000590009,
    "FlipAngle": 68,
    "ImageComments": "Unaliased_MB6_PE3_LB",
    "ImageOrientationPatientDICOM": [
      0.999966,
      -0.00497421,
      0.00660377,
      0.00628303,
      0.976385,
      -0.215949
    ],
    "ImageType": [
      "ORIGINAL",
      "PRIMARY",
      "M",
      "MB",
      "ND",
      "MOSAIC"
    ],
    "ImagingFrequency": 123.191,
    "InPlanePhaseEncodingDirectionDICOM": "COL",
    "InstitutionAddress": "Washington_Place_6_NYC_NYC_US_10003",
    "InstitutionName": "NYU_Center_for_Brain_Imaging",
    "InstitutionalDepartmentName": "Department",
    "MRAcquisitionType": "2D",
    "MagneticFieldStrength": 3,
    "Manufacturer": "Siemens",
    "ManufacturersModelName": "Prisma",
    "Modality": "MR",
    "MultibandAccelerationFactor": 6,
    "NumberOfVolumes": 192,
    "PartialFourier": 1,
    "PatientPosition": "HFS",
    "PercentPhaseFOV": 100,
    "PhaseEncodingDirection": "j",
    "PhaseEncodingSteps": 104,
    "PhaseResolution": 1,
    "PixelBandwidth": 2290,
    "ProcedureStepDescription": "Investigators_Winawer",
    "ProtocolName": "cmrr_mbepi_s6_2mm_66sl_PA_task-prf",
    "PulseSequenceDetails": "%CustomerSeq%_cmrr_mbep2d_bold",
    "ReceiveCoilActiveElements": "HC1-7",
    "ReceiveCoilName": "HeadNeck_64",
    "ReconMatrixPE": 104,
    "RepetitionTime": 1,
    "SAR": 0.0775787,
    "ScanOptions": "FS",
    "ScanningSequence": "EP",
    "SequenceName": "epfid2d1_104",
    "SequenceVariant": "SK_SS",
    "SeriesDescription": "cmrr_mbepi_s6_2mm_66sl_PA_task-prf",
    "SeriesNumber": 14,
    "ShimSetting": [
      248,
      -12599,
      -8432,
      410,
      -68,
      -15,
      -73,
      -19
    ],
    "SliceThickness": 2,
    "SliceTiming": [
      0,
      0.535,
      0.09,
      0.625,
      0.18,
      0.715,
      0.2675,
      0.8025,
      0.3575,
      0.8925,
      0.4475,
      0,
      0.535,
      0.09,
      0.625,
      0.18,
      0.715,
      0.2675,
      0.8025,
      0.3575,
      0.8925,
      0.4475,
      0,
      0.535,
      0.09,
      0.625,
      0.18,
      0.715,
      0.2675,
      0.8025,
      0.3575,
      0.8925,
      0.4475,
      0,
      0.535,
      0.09,
      0.625,
      0.18,
      0.715,
      0.2675,
      0.8025,
      0.3575,
      0.8925,
      0.4475,
      0,
      0.535,
      0.09,
      0.625,
      0.18,
      0.715,
      0.2675,
      0.8025,
      0.3575,
      0.8925,
      0.4475,
      0,
      0.535,
      0.09,
      0.625,
      0.18,
      0.715,
      0.2675,
      0.8025,
      0.3575,
      0.8925,
      0.4475
    ],
    "SoftwareVersions": "syngo_MR_E11",
    "SpacingBetweenSlices": 2,
    "StationName": "AWP166018",
    "TaskName": "prf",
    "TotalReadoutTime": 0.060771,
    "TxRefAmp": 267.495,
    "VendorReportedEchoSpacing": 0.00059,
    "WipMemBlock": "8ef6ec9f-e1da-4b64-ae86-497b89904070||Sequence: R016 ve11c/master r/8780670; Nov 27 2017 15:05:12 by eja",
    "acq_id": "PA",
    "dataset": "unknown",
    "dcmmeta_affine": [
      [
        -1.9999316930770874,
        0.012566065415740013,
        0.010747287422418594,
        105.10359954833984
      ],
      [
        0.009948423132300377,
        1.9527690410614014,
        -0.4319654107093811,
        -64.03707122802734
      ],
      [
        0.013207538984715939,
        0.43189719319343567,
        1.9527647495269775,
        -79.63056182861328
      ],
      [
        0.0,
        0.0,
        0.0,
        1.0
      ]
    ],
    "dcmmeta_reorient_transform": [
      [
        0.0,
        -1.0,
        0.0,
        103.0
      ],
      [
        1.0,
        0.0,
        0.0,
        0.0
      ],
      [
        0.0,
        0.0,
        1.0,
        0.0
      ],
      [
        0.0,
        0.0,
        0.0,
        1.0
      ]
    ],
    "dcmmeta_shape": [
      104,
      104,
      66,
      192
    ],
    "dcmmeta_slice_dim": 2,
    "dcmmeta_version": 0.6,
    "global": {
      "const": {
        "AccessionNumber": "kr5f3gr7",
        "AcquisitionMatrix": [
          104,
          0,
          0,
          104
        ],
        "AngioFlag": "N",
        "BitsAllocated": 16,
        "BitsStored": 16,
        "BodyPartExamined": "BRAIN",
        "Columns": 936,
        "EchoNumbers": 1,
        "EchoTime": 37.6,
        "EchoTrainLength": 104,
        "FlipAngle": 68.0,
        "HighBit": 15,
        "ImageOrientationPatient": [
          0.99996582313977,
          -0.0049742117076,
          0.00660376940018,
          0.00628303279754,
          0.97638451694328,
          -0.215948601691
        ],
        "ImagePositionPatient": [
          -943.59695612437,
          -945.31151405382,
          139.02975176322
        ],
        "ImageType": [
          "ORIGINAL",
          "PRIMARY",
          "M",
          "MB",
          "ND",
          "MOSAIC"
        ],
        "ImagedNucleus": "1H",
        "ImagingFrequency": 123.190615,
        "InPlanePhaseEncodingDirection": "COL",
        "MRAcquisitionType": "2D",
        "MagneticFieldStrength": 3.0,
        "Manufacturer": "SIEMENS",
        "ManufacturerModelName": "Prisma",
        "Modality": "MR",
        "NumberOfAverages": 1.0,
        "NumberOfPhaseEncodingSteps": 104,
        "PercentPhaseFieldOfView": 100.0,
        "PercentSampling": 100.0,
        "PerformedProcedureStepStartTime": "142210.868000",
        "PhotometricInterpretation": "MONOCHROME2",
        "PixelBandwidth": 2290.0,
        "PixelRepresentation": 0,
        "PixelSpacing": [
          2.0,
          2.0
        ],
        "ProtocolName": "cmrr_mbepi_s6_2mm_66sl_PA_task-prf",
        "RepetitionTime": 1000.0,
        "Rows": 936,
        "SAR": 0.07757868287475,
        "SamplesPerPixel": 1,
        "ScanOptions": "FS",
        "ScanningSequence": "EP",
        "SequenceName": "epfid2d1_104",
        "SequenceVariant": [
          "SK",
          "SS"
        ],
        "SeriesDescription": "cmrr_mbepi_s6_2mm_66sl_PA_task-prf",
        "SeriesNumber": 14,
        "SeriesTime": "144010.190000",
        "SliceLocation": -63.354188394136,
        "SliceThickness": 2.0,
        "SmallestImagePixelValue": 0,
        "SoftwareVersions": "syngo MR E11",
        "SpacingBetweenSlices": 1.9999999142616,
        "SpecificCharacterSet": "ISO_IR 100",
        "StudyID": "1",
        "StudyTime": "142210.805000",
        "TransmitCoilName": "Body",
        "VariableFlipAngleFlag": "N",
        "WindowCenterWidthExplanation": "Algo1",
        "dBdt": 0.0
      },
      "slices": {}
    },
    "modality": "bold",
    "run_id": 4,
    "session_id": "nyu3t02",
    "subject_id": "wlsubj114",
    "task_id": "prf",
    "time": {
      "samples": {
        "AcquisitionNumber": [
          1,
          2,
          3,
          4,
          5,
          6,
          7,
          8,
          9,
          10,
          11,
          12,
          13,
          14,
          15,
          16,
          17,
          18,
          19,
          20,
          21,
          22,
          23,
          24,
          25,
          26,
          27,
          28,
          29,
          30,
          31,
          32,
          33,
          34,
          35,
          36,
          37,
          38,
          39,
          40,
          41,
          42,
          43,
          44,
          45,
          46,
          47,
          48,
          49,
          50,
          51,
          52,
          53,
          54,
          55,
          56,
          57,
          58,
          59,
          60,
          61,
          62,
          63,
          64,
          65,
          66,
          67,
          68,
          69,
          70,
          71,
          72,
          73,
          74,
          75,
          76,
          77,
          78,
          79,
          80,
          81,
          82,
          83,
          84,
          85,
          86,
          87,
          88,
          89,
          90,
          91,
          92,
          93,
          94,
          95,
          96,
          97,
          98,
          99,
          100,
          101,
          102,
          103,
          104,
          105,
          106,
          107,
          108,
          109,
          110,
          111,
          112,
          113,
          114,
          115,
          116,
          117,
          118,
          119,
          120,
          121,
          122,
          123,
          124,
          125,
          126,
          127,
          128,
          129,
          130,
          131,
          132,
          133,
          134,
          135,
          136,
          137,
          138,
          139,
          140,
          141,
          142,
          143,
          144,
          145,
          146,
          147,
          148,
          149,
          150,
          151,
          152,
          153,
          154,
          155,
          156,
          157,
          158,
          159,
          160,
          161,
          162,
          163,
          164,
          165,
          166,
          167,
          168,
          169,
          170,
          171,
          172,
          173,
          174,
          175,
          176,
          177,
          178,
          179,
          180,
          181,
          182,
          183,
          184,
          185,
          186,
          187,
          188,
          189,
          190,
          191,
          192
        ],
        "AcquisitionTime": [
          "143912.467500",
          "143913.467500",
          "143914.467500",
          "143915.467500",
          "143916.467500",
          "143917.467500",
          "143918.467500",
          "143919.467500",
          "143920.467500",
          "143921.467500",
          "143922.467500",
          "143923.467500",
          "143924.467500",
          "143925.467500",
          "143926.467500",
          "143927.467500",
          "143928.467500",
          "143929.467500",
          "143930.467500",
          "143931.467500",
          "143932.467500",
          "143933.467500",
          "143934.467500",
          "143935.467500",
          "143936.467500",
          "143937.467500",
          "143938.467500",
          "143939.467500",
          "143940.467500",
          "143941.467500",
          "143942.467500",
          "143943.467500",
          "143944.467500",
          "143945.467500",
          "143946.467500",
          "143947.467500",
          "143948.467500",
          "143949.467500",
          "143950.467500",
          "143951.467500",
          "143952.467500",
          "143953.467500",
          "143954.467500",
          "143955.467500",
          "143956.467500",
          "143957.467500",
          "143958.467500",
          "143959.467500",
          "144000.467500",
          "144001.467500",
          "144002.467500",
          "144003.467500",
          "144004.467500",
          "144005.467500",
          "144006.467500",
          "144007.467500",
          "144008.467500",
          "144009.467500",
          "144010.467500",
          "144011.467500",
          "144012.467500",
          "144013.467500",
          "144014.467500",
          "144015.467500",
          "144016.467500",
          "144017.467500",
          "144018.467500",
          "144019.467500",
          "144020.467500",
          "144021.467500",
          "144022.467500",
          "144023.467500",
          "144024.467500",
          "144025.467500",
          "144026.467500",
          "144027.467500",
          "144028.467500",
          "144029.467500",
          "144030.467500",
          "144031.467500",
          "144032.467500",
          "144033.467500",
          "144034.467500",
          "144035.467500",
          "144036.467500",
          "144037.467500",
          "144038.467500",
          "144039.467500",
          "144040.467500",
          "144041.467500",
          "144042.467500",
          "144043.467500",
          "144044.467500",
          "144045.467500",
          "144046.467500",
          "144047.467500",
          "144048.467500",
          "144049.467500",
          "144050.467500",
          "144051.467500",
          "144052.467500",
          "144053.467500",
          "144054.467500",
          "144055.467500",
          "144056.467500",
          "144057.467500",
          "144058.467500",
          "144059.467500",
          "144100.467500",
          "144101.467500",
          "144102.467500",
          "144103.467500",
          "144104.467500",
          "144105.467500",
          "144106.467500",
          "144107.467500",
          "144108.467500",
          "144109.467500",
          "144110.467500",
          "144111.467500",
          "144112.467500",
          "144113.467500",
          "144114.467500",
          "144115.467500",
          "144116.467500",
          "144117.467500",
          "144118.467500",
          "144119.467500",
          "144120.467500",
          "144121.467500",
          "144122.467500",
          "144123.467500",
          "144124.467500",
          "144125.467500",
          "144126.467500",
          "144127.467500",
          "144128.467500",
          "144129.467500",
          "144130.467500",
          "144131.467500",
          "144132.467500",
          "144133.467500",
          "144134.467500",
          "144135.467500",
          "144136.467500",
          "144137.467500",
          "144138.467500",
          "144139.467500",
          "144140.467500",
          "144141.467500",
          "144142.467500",
          "144143.467500",
          "144144.467500",
          "144145.467500",
          "144146.467500",
          "144147.467500",
          "144148.467500",
          "144149.467500",
          "144150.467500",
          "144151.467500",
          "144152.467500",
          "144153.467500",
          "144154.467500",
          "144155.467500",
          "144156.467500",
          "144157.467500",
          "144158.467500",
          "144159.467500",
          "144200.467500",
          "144201.467500",
          "144202.467500",
          "144203.467500",
          "144204.467500",
          "144205.467500",
          "144206.467500",
          "144207.467500",
          "144208.467500",
          "144209.467500",
          "144210.467500",
          "144211.467500",
          "144212.467500",
          "144213.467500",
          "144214.467500",
          "144215.467500",
          "144216.467500",
          "144217.467500",
          "144218.467500",
          "144219.467500",
          "144220.467500",
          "144221.467500",
          "144222.467500",
          "144223.467500"
        ],
        "ContentTime": [
          "144010.193000",
          "144010.196000",
          "144030.152000",
          "144030.155000",
          "144030.158000",
          "144030.161000",
          "144030.164000",
          "144030.168000",
          "144030.171000",
          "144030.177000",
          "144030.180000",
          "144030.183000",
          "144030.186000",
          "144030.189000",
          "144030.192000",
          "144030.195000",
          "144030.198000",
          "144030.201000",
          "144030.203000",
          "144030.206000",
          "144030.209000",
          "144030.212000",
          "144030.215000",
          "144030.218000",
          "144030.222000",
          "144030.230000",
          "144030.233000",
          "144030.235000",
          "144030.238000",
          "144030.241000",
          "144050.152000",
          "144050.156000",
          "144050.160000",
          "144050.163000",
          "144050.165000",
          "144050.168000",
          "144050.171000",
          "144050.174000",
          "144050.177000",
          "144050.180000",
          "144050.183000",
          "144050.186000",
          "144050.189000",
          "144050.192000",
          "144050.195000",
          "144050.198000",
          "144050.201000",
          "144050.204000",
          "144050.207000",
          "144050.210000",
          "144050.213000",
          "144050.216000",
          "144050.227000",
          "144050.230000",
          "144050.233000",
          "144050.236000",
          "144050.239000",
          "144050.241000",
          "144110.152000",
          "144110.156000",
          "144110.159000",
          "144110.162000",
          "144110.165000",
          "144110.168000",
          "144110.171000",
          "144110.174000",
          "144110.177000",
          "144110.180000",
          "144110.183000",
          "144110.186000",
          "144110.189000",
          "144110.192000",
          "144110.195000",
          "144110.198000",
          "144110.201000",
          "144110.204000",
          "144110.207000",
          "144110.210000",
          "144110.213000",
          "144110.216000",
          "144110.219000",
          "144110.222000",
          "144110.225000",
          "144110.228000",
          "144110.231000",
          "144110.233000",
          "144130.152000",
          "144130.156000",
          "144130.160000",
          "144130.170000",
          "144130.173000",
          "144130.176000",
          "144130.179000",
          "144130.182000",
          "144130.185000",
          "144130.188000",
          "144130.191000",
          "144130.194000",
          "144130.206000",
          "144130.209000",
          "144130.212000",
          "144130.215000",
          "144130.218000",
          "144130.221000",
          "144130.224000",
          "144130.227000",
          "144130.230000",
          "144130.233000",
          "144130.236000",
          "144130.239000",
          "144130.242000",
          "144130.245000",
          "144130.248000",
          "144130.251000",
          "144150.151000",
          "144150.155000",
          "144150.158000",
          "144150.161000",
          "144150.164000",
          "144150.167000",
          "144150.170000",
          "144150.173000",
          "144150.176000",
          "144150.179000",
          "144150.182000",
          "144150.185000",
          "144150.188000",
          "144150.191000",
          "144150.194000",
          "144150.197000",
          "144150.200000",
          "144150.203000",
          "144150.206000",
          "144150.209000",
          "144150.212000",
          "144150.215000",
          "144150.218000",
          "144150.221000",
          "144150.224000",
          "144150.227000",
          "144150.230000",
          "144150.233000",
          "144150.236000",
          "144210.152000",
          "144210.156000",
          "144210.160000",
          "144210.163000",
          "144210.166000",
          "144210.169000",
          "144210.171000",
          "144210.174000",
          "144210.177000",
          "144210.180000",
          "144210.183000",
          "144210.186000",
          "144210.189000",
          "144210.192000",
          "144210.195000",
          "144210.198000",
          "144210.201000",
          "144210.204000",
          "144210.207000",
          "144210.210000",
          "144210.213000",
          "144210.216000",
          "144210.219000",
          "144210.222000",
          "144210.225000",
          "144210.228000",
          "144210.231000",
          "144210.234000",
          "144225.345000",
          "144225.349000",
          "144225.352000",
          "144225.355000",
          "144225.358000",
          "144225.361000",
          "144225.364000",
          "144225.367000",
          "144225.370000",
          "144225.373000",
          "144225.376000",
          "144225.379000",
          "144225.382000",
          "144225.385000",
          "144225.388000",
          "144225.391000",
          "144225.394000",
          "144225.397000",
          "144225.400000",
          "144225.403000",
          "144225.406000"
        ],
        "InstanceCreationTime": [
          "144010.193000",
          "144010.196000",
          "144030.152000",
          "144030.155000",
          "144030.158000",
          "144030.161000",
          "144030.164000",
          "144030.168000",
          "144030.171000",
          "144030.177000",
          "144030.180000",
          "144030.183000",
          "144030.186000",
          "144030.189000",
          "144030.192000",
          "144030.195000",
          "144030.198000",
          "144030.201000",
          "144030.203000",
          "144030.206000",
          "144030.209000",
          "144030.212000",
          "144030.215000",
          "144030.218000",
          "144030.222000",
          "144030.230000",
          "144030.233000",
          "144030.235000",
          "144030.238000",
          "144030.241000",
          "144050.152000",
          "144050.156000",
          "144050.160000",
          "144050.163000",
          "144050.165000",
          "144050.168000",
          "144050.171000",
          "144050.174000",
          "144050.177000",
          "144050.180000",
          "144050.183000",
          "144050.186000",
          "144050.189000",
          "144050.192000",
          "144050.195000",
          "144050.198000",
          "144050.201000",
          "144050.204000",
          "144050.207000",
          "144050.210000",
          "144050.213000",
          "144050.216000",
          "144050.227000",
          "144050.230000",
          "144050.233000",
          "144050.236000",
          "144050.239000",
          "144050.241000",
          "144110.152000",
          "144110.156000",
          "144110.159000",
          "144110.162000",
          "144110.165000",
          "144110.168000",
          "144110.171000",
          "144110.174000",
          "144110.177000",
          "144110.180000",
          "144110.183000",
          "144110.186000",
          "144110.189000",
          "144110.192000",
          "144110.195000",
          "144110.198000",
          "144110.201000",
          "144110.204000",
          "144110.207000",
          "144110.210000",
          "144110.213000",
          "144110.216000",
          "144110.219000",
          "144110.222000",
          "144110.225000",
          "144110.228000",
          "144110.231000",
          "144110.233000",
          "144130.152000",
          "144130.156000",
          "144130.160000",
          "144130.170000",
          "144130.173000",
          "144130.176000",
          "144130.179000",
          "144130.182000",
          "144130.185000",
          "144130.188000",
          "144130.191000",
          "144130.194000",
          "144130.206000",
          "144130.209000",
          "144130.212000",
          "144130.215000",
          "144130.218000",
          "144130.221000",
          "144130.224000",
          "144130.227000",
          "144130.230000",
          "144130.233000",
          "144130.236000",
          "144130.239000",
          "144130.242000",
          "144130.245000",
          "144130.248000",
          "144130.251000",
          "144150.151000",
          "144150.155000",
          "144150.158000",
          "144150.161000",
          "144150.164000",
          "144150.167000",
          "144150.170000",
          "144150.173000",
          "144150.176000",
          "144150.179000",
          "144150.182000",
          "144150.185000",
          "144150.188000",
          "144150.191000",
          "144150.194000",
          "144150.197000",
          "144150.200000",
          "144150.203000",
          "144150.206000",
          "144150.209000",
          "144150.212000",
          "144150.215000",
          "144150.218000",
          "144150.221000",
          "144150.224000",
          "144150.227000",
          "144150.230000",
          "144150.233000",
          "144150.236000",
          "144210.152000",
          "144210.156000",
          "144210.160000",
          "144210.163000",
          "144210.166000",
          "144210.169000",
          "144210.171000",
          "144210.174000",
          "144210.177000",
          "144210.180000",
          "144210.183000",
          "144210.186000",
          "144210.189000",
          "144210.192000",
          "144210.195000",
          "144210.198000",
          "144210.201000",
          "144210.204000",
          "144210.207000",
          "144210.210000",
          "144210.213000",
          "144210.216000",
          "144210.219000",
          "144210.222000",
          "144210.225000",
          "144210.228000",
          "144210.231000",
          "144210.234000",
          "144225.345000",
          "144225.349000",
          "144225.352000",
          "144225.355000",
          "144225.358000",
          "144225.361000",
          "144225.364000",
          "144225.367000",
          "144225.370000",
          "144225.373000",
          "144225.376000",
          "144225.379000",
          "144225.382000",
          "144225.385000",
          "144225.388000",
          "144225.391000",
          "144225.394000",
          "144225.397000",
          "144225.400000",
          "144225.403000",
          "144225.406000"
        ],
        "InstanceNumber": [
          1,
          2,
          3,
          4,
          5,
          6,
          7,
          8,
          9,
          10,
          11,
          12,
          13,
          14,
          15,
          16,
          17,
          18,
          19,
          20,
          21,
          22,
          23,
          24,
          25,
          26,
          27,
          28,
          29,
          30,
          31,
          32,
          33,
          34,
          35,
          36,
          37,
          38,
          39,
          40,
          41,
          42,
          43,
          44,
          45,
          46,
          47,
          48,
          49,
          50,
          51,
          52,
          53,
          54,
          55,
          56,
          57,
          58,
          59,
          60,
          61,
          62,
          63,
          64,
          65,
          66,
          67,
          68,
          69,
          70,
          71,
          72,
          73,
          74,
          75,
          76,
          77,
          78,
          79,
          80,
          81,
          82,
          83,
          84,
          85,
          86,
          87,
          88,
          89,
          90,
          91,
          92,
          93,
          94,
          95,
          96,
          97,
          98,
          99,
          100,
          101,
          102,
          103,
          104,
          105,
          106,
          107,
          108,
          109,
          110,
          111,
          112,
          113,
          114,
          115,
          116,
          117,
          118,
          119,
          120,
          121,
          122,
          123,
          124,
          125,
          126,
          127,
          128,
          129,
          130,
          131,
          132,
          133,
          134,
          135,
          136,
          137,
          138,
          139,
          140,
          141,
          142,
          143,
          144,
          145,
          146,
          147,
          148,
          149,
          150,
          151,
          152,
          153,
          154,
          155,
          156,
          157,
          158,
          159,
          160,
          161,
          162,
          163,
          164,
          165,
          166,
          167,
          168,
          169,
          170,
          171,
          172,
          173,
          174,
          175,
          176,
          177,
          178,
          179,
          180,
          181,
          182,
          183,
          184,
          185,
          186,
          187,
          188,
          189,
          190,
          191,
          192
        ],
        "LargestImagePixelValue": [
          30761,
          32375,
          31372,
          29685,
          29850,
          30840,
          30288,
          29727,
          31589,
          29579,
          31925,
          29793,
          30108,
          30722,
          29793,
          29800,
          29677,
          29820,
          29681,
          30518,
          30111,
          30745,
          30477,
          30314,
          30473,
          31106,
          30618,
          30668,
          30720,
          31157,
          31279,
          31251,
          31355,
          32103,
          31139,
          31438,
          31276,
          31536,
          30889,
          31892,
          31318,
          32161,
          31702,
          31955,
          30942,
          30608,
          31261,
          30743,
          30710,
          31253,
          31400,
          31737,
          31274,
          31367,
          31344,
          31466,
          31658,
          31049,
          31314,
          31214,
          30654,
          31270,
          30930,
          30966,
          30762,
          30817,
          30698,
          30837,
          30768,
          30646,
          30226,
          30572,
          31084,
          30850,
          31071,
          30657,
          31024,
          31099,
          31200,
