{
  "aor": 0.0011221354166666667,
  "aqi": 0.011031267760416666,
  "bids_meta": {
    "AcquisitionMatrixPE": 104,
    "AcquisitionNumber": 1,
    "AcquisitionTime": "14:35:2.457500",
    "BandwidthPerPixelPhaseEncode": 16.297,
    "BaseResolution": 104,
    "BodyPartExamined": "BRAIN",
    "CogAtlasID": "doi:TODO",
    "ConsistencyInfo": "N4_VE11C_LATEST_20160120",
    "ConversionSoftware": "dcm2niix",
    "ConversionSoftwareVersion": "v1.0.20190902",
    "DerivedVendorReportedEchoSpacing": 0.000590009,
    "DeviceSerialNumber": "166018",
    "DwellTime": 2.1e-06,
    "EchoTime": 0.0376,
    "EchoTrainLength": 104,
    "EffectiveEchoSpacing": 0.000590009,
    "FlipAngle": 68,
    "ImageComments": "Unaliased_MB6_PE3_LB",
    "ImageOrientationPatientDICOM": [
      0.999966,
      -0.00497421,
      0.00660377,
      0.00628303,
      0.976385,
      -0.215949
    ],
    "ImageType": [
      "ORIGINAL",
      "PRIMARY",
      "M",
      "MB",
      "ND",
      "MOSAIC"
    ],
    "ImagingFrequency": 123.191,
    "InPlanePhaseEncodingDirectionDICOM": "COL",
    "InstitutionAddress": "Washington_Place_6_NYC_NYC_US_10003",
    "InstitutionName": "NYU_Center_for_Brain_Imaging",
    "InstitutionalDepartmentName": "Department",
    "MRAcquisitionType": "2D",
    "MagneticFieldStrength": 3,
    "Manufacturer": "Siemens",
    "ManufacturersModelName": "Prisma",
    "Modality": "MR",
    "MultibandAccelerationFactor": 6,
    "NumberOfVolumes": 192,
    "PartialFourier": 1,
    "PatientPosition": "HFS",
    "PercentPhaseFOV": 100,
    "PhaseEncodingDirection": "j",
    "PhaseEncodingSteps": 104,
    "PhaseResolution": 1,
    "PixelBandwidth": 2290,
    "ProcedureStepDescription": "Investigators_Winawer",
    "ProtocolName": "cmrr_mbepi_s6_2mm_66sl_PA_task-prf",
    "PulseSequenceDetails": "%CustomerSeq%_cmrr_mbep2d_bold",
    "ReceiveCoilActiveElements": "HC1-7",
    "ReceiveCoilName": "HeadNeck_64",
    "ReconMatrixPE": 104,
    "RepetitionTime": 1,
    "SAR": 0.0775787,
    "ScanOptions": "FS",
    "ScanningSequence": "EP",
    "SequenceName": "epfid2d1_104",
    "SequenceVariant": "SK_SS",
    "SeriesDescription": "cmrr_mbepi_s6_2mm_66sl_PA_task-prf",
    "SeriesNumber": 12,
    "ShimSetting": [
      248,
      -12599,
      -8432,
      410,
      -68,
      -15,
      -73,
      -19
    ],
    "SliceThickness": 2,
    "SliceTiming": [
      0,
      0.535,
      0.0875,
      0.6225,
      0.1775,
      0.7125,
      0.2675,
      0.8,
      0.355,
      0.89,
      0.445,
      0,
      0.535,
      0.0875,
      0.6225,
      0.1775,
      0.7125,
      0.2675,
      0.8,
      0.355,
      0.89,
      0.445,
      0,
      0.535,
      0.0875,
      0.6225,
      0.1775,
      0.7125,
      0.2675,
      0.8,
      0.355,
      0.89,
      0.445,
      0,
      0.535,
      0.0875,
      0.6225,
      0.1775,
      0.7125,
      0.2675,
      0.8,
      0.355,
      0.89,
      0.445,
      0,
      0.535,
      0.0875,
      0.6225,
      0.1775,
      0.7125,
      0.2675,
      0.8,
      0.355,
      0.89,
      0.445,
      0,
      0.535,
      0.0875,
      0.6225,
      0.1775,
      0.7125,
      0.2675,
      0.8,
      0.355,
      0.89,
      0.445
    ],
    "SoftwareVersions": "syngo_MR_E11",
    "SpacingBetweenSlices": 2,
    "StationName": "AWP166018",
    "TaskName": "prf",
    "TotalReadoutTime": 0.060771,
    "TxRefAmp": 267.495,
    "VendorReportedEchoSpacing": 0.00059,
    "WipMemBlock": "8ef6ec9f-e1da-4b64-ae86-497b89904070||Sequence: R016 ve11c/master r/8780670; Nov 27 2017 15:05:12 by eja",
    "acq_id": "PA",
    "dataset": "unknown",
    "dcmmeta_affine": [
      [
        -1.9999316930770874,
        0.012566065415740013,
        0.010747287422418594,
        105.10359954833984
      ],
      [
        0.009948423132300377,
        1.9527690410614014,
        -0.4319654107093811,
        -64.03707122802734
      ],
      [
        0.013207538984715939,
        0.43189719319343567,
        1.9527647495269775,
        -79.63056182861328
      ],
      [
        0.0,
        0.0,
        0.0,
        1.0
      ]
    ],
    "dcmmeta_reorient_transform": [
      [
        0.0,
        -1.0,
        0.0,
        103.0
      ],
      [
        1.0,
        0.0,
        0.0,
        0.0
      ],
      [
        0.0,
        0.0,
        1.0,
        0.0
      ],
      [
        0.0,
        0.0,
        0.0,
        1.0
      ]
    ],
    "dcmmeta_shape": [
      104,
      104,
      66,
      192
    ],
    "dcmmeta_slice_dim": 2,
    "dcmmeta_version": 0.6,
    "global": {
      "const": {
        "AccessionNumber": "kr5f3gr7",
        "AcquisitionMatrix": [
          104,
          0,
          0,
          104
        ],
        "AngioFlag": "N",
        "BitsAllocated": 16,
        "BitsStored": 16,
        "BodyPartExamined": "BRAIN",
        "Columns": 936,
        "EchoNumbers": 1,
        "EchoTime": 37.6,
        "EchoTrainLength": 104,
        "FlipAngle": 68.0,
        "HighBit": 15,
        "ImageOrientationPatient": [
          0.99996582313977,
          -0.0049742117076,
          0.00660376940018,
          0.00628303279754,
          0.97638451694328,
          -0.215948601691
        ],
        "ImagePositionPatient": [
          -943.59695612437,
          -945.31151405382,
          139.02975176322
        ],
        "ImageType": [
          "ORIGINAL",
          "PRIMARY",
          "M",
          "MB",
          "ND",
          "MOSAIC"
        ],
        "ImagedNucleus": "1H",
        "ImagingFrequency": 123.190615,
        "InPlanePhaseEncodingDirection": "COL",
        "MRAcquisitionType": "2D",
        "MagneticFieldStrength": 3.0,
        "Manufacturer": "SIEMENS",
        "ManufacturerModelName": "Prisma",
        "Modality": "MR",
        "NumberOfAverages": 1.0,
        "NumberOfPhaseEncodingSteps": 104,
        "PercentPhaseFieldOfView": 100.0,
        "PercentSampling": 100.0,
        "PerformedProcedureStepStartTime": "142210.868000",
        "PhotometricInterpretation": "MONOCHROME2",
        "PixelBandwidth": 2290.0,
        "PixelRepresentation": 0,
        "PixelSpacing": [
          2.0,
          2.0
        ],
        "ProtocolName": "cmrr_mbepi_s6_2mm_66sl_PA_task-prf",
        "RepetitionTime": 1000.0,
        "Rows": 936,
        "SAR": 0.07757868287475,
        "SamplesPerPixel": 1,
        "ScanOptions": "FS",
        "ScanningSequence": "EP",
        "SequenceName": "epfid2d1_104",
        "SequenceVariant": [
          "SK",
          "SS"
        ],
        "SeriesDescription": "cmrr_mbepi_s6_2mm_66sl_PA_task-prf",
        "SeriesNumber": 12,
        "SeriesTime": "143610.328000",
        "SliceLocation": -63.354188394136,
        "SliceThickness": 2.0,
        "SmallestImagePixelValue": 0,
        "SoftwareVersions": "syngo MR E11",
        "SpacingBetweenSlices": 1.9999999142616,
        "SpecificCharacterSet": "ISO_IR 100",
        "StudyID": "1",
        "StudyTime": "142210.805000",
        "TransmitCoilName": "Body",
        "VariableFlipAngleFlag": "N",
        "WindowCenterWidthExplanation": "Algo1",
        "dBdt": 0.0
      },
      "slices": {}
    },
    "modality": "bold",
    "run_id": 3,
    "session_id": "nyu3t02",
    "subject_id": "wlsubj114",
    "task_id": "prf",
    "time": {
      "samples": {
        "AcquisitionNumber": [
          1,
          2,
          3,
          4,
          5,
          6,
          7,
          8,
          9,
          10,
          11,
          12,
          13,
          14,
          15,
          16,
          17,
          18,
          19,
          20,
          21,
          22,
          23,
          24,
          25,
          26,
          27,
          28,
          29,
          30,
          31,
          32,
          33,
          34,
          35,
          36,
          37,
          38,
          39,
          40,
          41,
          42,
          43,
          44,
          45,
          46,
          47,
          48,
          49,
          50,
          51,
          52,
          53,
          54,
          55,
          56,
          57,
          58,
          59,
          60,
          61,
          62,
          63,
          64,
          65,
          66,
          67,
          68,
          69,
          70,
          71,
          72,
          73,
          74,
          75,
          76,
          77,
          78,
          79,
          80,
          81,
          82,
          83,
          84,
          85,
          86,
          87,
          88,
          89,
          90,
          91,
          92,
          93,
          94,
          95,
          96,
          97,
          98,
          99,
          100,
          101,
          102,
          103,
          104,
          105,
          106,
          107,
          108,
          109,
          110,
          111,
          112,
          113,
          114,
          115,
          116,
          117,
          118,
          119,
          120,
          121,
          122,
          123,
          124,
          125,
          126,
          127,
          128,
          129,
          130,
          131,
          132,
          133,
          134,
          135,
          136,
          137,
          138,
          139,
          140,
          141,
          142,
          143,
          144,
          145,
          146,
          147,
          148,
          149,
          150,
          151,
          152,
          153,
          154,
          155,
          156,
          157,
          158,
          159,
          160,
          161,
          162,
          163,
          164,
          165,
          166,
          167,
          168,
          169,
          170,
          171,
          172,
          173,
          174,
          175,
          176,
          177,
          178,
          179,
          180,
          181,
          182,
          183,
          184,
          185,
          186,
          187,
          188,
          189,
          190,
          191,
          192
        ],
        "AcquisitionTime": [
          "143502.457500",
          "143503.457500",
          "143504.457500",
          "143505.457500",
          "143506.457500",
          "143507.457500",
          "143508.457500",
          "143509.457500",
          "143510.457500",
          "143511.457500",
          "143512.457500",
          "143513.457500",
          "143514.457500",
          "143515.457500",
          "143516.457500",
          "143517.457500",
          "143518.457500",
          "143519.457500",
          "143520.457500",
          "143521.457500",
          "143522.457500",
          "143523.457500",
          "143524.457500",
          "143525.457500",
          "143526.457500",
          "143527.457500",
          "143528.457500",
          "143529.457500",
          "143530.457500",
          "143531.457500",
          "143532.457500",
          "143533.457500",
          "143534.457500",
          "143535.457500",
          "143536.457500",
          "143537.457500",
          "143538.457500",
          "143539.457500",
          "143540.457500",
          "143541.457500",
          "143542.457500",
          "143543.457500",
          "143544.457500",
          "143545.457500",
          "143546.457500",
          "143547.457500",
          "143548.457500",
          "143549.457500",
          "143550.457500",
          "143551.457500",
          "143552.457500",
          "143553.457500",
          "143554.457500",
          "143555.457500",
          "143556.457500",
          "143557.457500",
          "143558.457500",
          "143559.457500",
          "143600.457500",
          "143601.457500",
          "143602.457500",
          "143603.457500",
          "143604.457500",
          "143605.457500",
          "143606.457500",
          "143607.457500",
          "143608.457500",
          "143609.457500",
          "143610.457500",
          "143611.457500",
          "143612.457500",
          "143613.457500",
          "143614.457500",
          "143615.457500",
          "143616.457500",
          "143617.457500",
          "143618.457500",
          "143619.457500",
          "143620.457500",
          "143621.457500",
          "143622.457500",
          "143623.457500",
          "143624.457500",
          "143625.457500",
          "143626.457500",
          "143627.457500",
          "143628.457500",
          "143629.457500",
          "143630.457500",
          "143631.457500",
          "143632.457500",
          "143633.457500",
          "143634.457500",
          "143635.457500",
          "143636.457500",
          "143637.457500",
          "143638.457500",
          "143639.457500",
          "143640.457500",
          "143641.457500",
          "143642.457500",
          "143643.457500",
          "143644.457500",
          "143645.457500",
          "143646.457500",
          "143647.457500",
          "143648.457500",
          "143649.457500",
          "143650.457500",
          "143651.457500",
          "143652.457500",
          "143653.457500",
          "143654.457500",
          "143655.457500",
          "143656.457500",
          "143657.457500",
          "143658.457500",
          "143659.457500",
          "143700.457500",
          "143701.457500",
          "143702.457500",
          "143703.457500",
          "143704.457500",
          "143705.457500",
          "143706.457500",
          "143707.457500",
          "143708.457500",
          "143709.457500",
          "143710.457500",
          "143711.457500",
          "143712.457500",
          "143713.457500",
          "143714.457500",
          "143715.457500",
          "143716.457500",
          "143717.457500",
          "143718.457500",
          "143719.457500",
          "143720.457500",
          "143721.457500",
          "143722.457500",
          "143723.457500",
          "143724.457500",
          "143725.457500",
          "143726.457500",
          "143727.457500",
          "143728.457500",
          "143729.457500",
          "143730.457500",
          "143731.457500",
          "143732.457500",
          "143733.457500",
          "143734.457500",
          "143735.457500",
          "143736.457500",
          "143737.457500",
          "143738.457500",
          "143739.457500",
          "143740.457500",
          "143741.457500",
          "143742.457500",
          "143743.457500",
          "143744.457500",
          "143745.457500",
          "143746.457500",
          "143747.457500",
          "143748.457500",
          "143749.457500",
          "143750.457500",
          "143751.457500",
          "143752.457500",
          "143753.457500",
          "143754.457500",
          "143755.457500",
          "143756.457500",
          "143757.457500",
          "143758.457500",
          "143759.457500",
          "143800.457500",
          "143801.457500",
          "143802.457500",
          "143803.457500",
          "143804.457500",
          "143805.457500",
          "143806.457500",
          "143807.457500",
          "143808.457500",
          "143809.457500",
          "143810.457500",
          "143811.457500",
          "143812.457500",
          "143813.457500"
        ],
        "ContentTime": [
          "143610.331000",
          "143610.334000",
          "143610.355000",
          "143610.358000",
          "143610.361000",
          "143610.364000",
          "143610.367000",
          "143610.377000",
          "143610.380000",
          "143610.383000",
          "143610.386000",
          "143610.389000",
          "143610.392000",
          "143610.395000",
          "143610.398000",
          "143610.401000",
          "143610.404000",
          "143610.407000",
          "143610.410000",
          "143610.413000",
          "143610.416000",
          "143610.419000",
          "143610.422000",
          "143610.425000",
          "143610.428000",
          "143610.431000",
          "143630.300000",
          "143630.303000",
          "143630.306000",
          "143630.309000",
          "143630.312000",
          "143630.315000",
          "143630.318000",
          "143630.321000",
          "143630.323000",
          "143630.326000",
          "143630.329000",
          "143630.332000",
          "143630.335000",
          "143630.338000",
          "143630.341000",
          "143630.344000",
          "143630.347000",
          "143630.350000",
          "143630.353000",
          "143630.357000",
          "143630.360000",
          "143630.363000",
          "143630.366000",
          "143630.369000",
          "143630.372000",
          "143630.375000",
          "143630.378000",
          "143630.381000",
          "143650.300000",
          "143650.303000",
          "143650.306000",
          "143650.309000",
          "143650.312000",
          "143650.315000",
          "143650.318000",
          "143650.320000",
          "143650.323000",
          "143650.326000",
          "143650.329000",
          "143650.332000",
          "143650.335000",
          "143650.338000",
          "143650.341000",
          "143650.344000",
          "143650.347000",
          "143650.350000",
          "143650.354000",
          "143650.357000",
          "143650.360000",
          "143650.363000",
          "143650.366000",
          "143650.369000",
          "143650.372000",
          "143650.375000",
          "143650.378000",
          "143650.381000",
          "143710.299000",
          "143710.302000",
          "143710.305000",
          "143710.308000",
          "143710.311000",
          "143710.314000",
          "143710.317000",
          "143710.320000",
          "143710.323000",
          "143710.325000",
          "143710.337000",
          "143710.340000",
          "143710.343000",
          "143710.346000",
          "143710.349000",
          "143710.352000",
          "143710.357000",
          "143710.360000",
          "143710.363000",
          "143710.366000",
          "143710.369000",
          "143710.372000",
          "143710.375000",
          "143710.378000",
          "143710.381000",
          "143710.384000",
          "143710.387000",
          "143710.390000",
          "143730.300000",
          "143730.316000",
          "143730.328000",
          "143730.331000",
          "143730.334000",
          "143730.337000",
          "143730.340000",
          "143730.342000",
          "143730.345000",
          "143730.348000",
          "143730.351000",
          "143730.356000",
          "143730.359000",
          "143730.362000",
          "143730.365000",
          "143730.368000",
          "143730.371000",
          "143730.374000",
          "143730.377000",
          "143730.380000",
          "143730.383000",
          "143730.386000",
          "143730.389000",
          "143730.392000",
          "143730.394000",
          "143730.397000",
          "143730.400000",
          "143730.403000",
          "143730.406000",
          "143750.300000",
          "143750.303000",
          "143750.306000",
          "143750.309000",
          "143750.312000",
          "143750.315000",
          "143750.318000",
          "143750.321000",
          "143750.324000",
          "143750.327000",
          "143750.330000",
          "143750.333000",
          "143750.336000",
          "143750.338000",
          "143750.341000",
          "143750.344000",
          "143750.347000",
          "143750.350000",
          "143750.355000",
          "143750.358000",
          "143750.361000",
          "143750.364000",
          "143750.367000",
          "143750.370000",
          "143750.373000",
          "143750.376000",
          "143750.379000",
          "143810.300000",
          "143810.303000",
          "143810.306000",
          "143810.309000",
          "143810.312000",
          "143810.315000",
          "143810.318000",
          "143810.321000",
          "143810.324000",
          "143810.327000",
          "143810.330000",
          "143810.333000",
          "143810.336000",
          "143810.339000",
          "143810.342000",
          "143810.344000",
          "143810.347000",
          "143810.350000",
          "143810.355000",
          "143810.358000",
          "143815.544000",
          "143815.548000",
          "143815.551000",
          "143815.554000",
          "143815.557000",
          "143815.560000"
        ],
        "InstanceCreationTime": [
          "143610.331000",
          "143610.334000",
          "143610.355000",
          "143610.358000",
          "143610.361000",
          "143610.364000",
          "143610.367000",
          "143610.377000",
          "143610.380000",
          "143610.383000",
          "143610.386000",
          "143610.389000",
          "143610.392000",
          "143610.395000",
          "143610.398000",
          "143610.401000",
          "143610.404000",
          "143610.407000",
          "143610.410000",
          "143610.413000",
          "143610.416000",
          "143610.419000",
          "143610.422000",
          "143610.425000",
          "143610.428000",
          "143610.431000",
          "143630.300000",
          "143630.303000",
          "143630.306000",
          "143630.309000",
          "143630.312000",
          "143630.315000",
          "143630.318000",
          "143630.321000",
          "143630.323000",
          "143630.326000",
          "143630.329000",
          "143630.332000",
          "143630.335000",
          "143630.338000",
          "143630.341000",
          "143630.344000",
          "143630.347000",
          "143630.350000",
          "143630.353000",
          "143630.357000",
          "143630.360000",
          "143630.363000",
          "143630.366000",
          "143630.369000",
          "143630.372000",
          "143630.375000",
          "143630.378000",
          "143630.381000",
          "143650.300000",
          "143650.303000",
          "143650.306000",
          "143650.309000",
          "143650.312000",
          "143650.315000",
          "143650.318000",
          "143650.320000",
          "143650.323000",
          "143650.326000",
          "143650.329000",
          "143650.332000",
          "143650.335000",
          "143650.338000",
          "143650.341000",
          "143650.344000",
          "143650.347000",
          "143650.350000",
          "143650.354000",
          "143650.357000",
          "143650.360000",
          "143650.363000",
          "143650.366000",
          "143650.369000",
          "143650.372000",
          "143650.375000",
          "143650.378000",
          "143650.381000",
          "143710.299000",
          "143710.302000",
          "143710.305000",
          "143710.308000",
          "143710.311000",
          "143710.314000",
          "143710.317000",
          "143710.320000",
          "143710.323000",
          "143710.325000",
          "143710.337000",
          "143710.340000",
          "143710.343000",
          "143710.346000",
          "143710.349000",
          "143710.352000",
          "143710.357000",
          "143710.360000",
          "143710.363000",
          "143710.366000",
          "143710.369000",
          "143710.372000",
          "143710.375000",
          "143710.378000",
          "143710.381000",
          "143710.384000",
          "143710.387000",
          "143710.390000",
          "143730.300000",
          "143730.316000",
          "143730.328000",
          "143730.331000",
          "143730.334000",
          "143730.337000",
          "143730.340000",
          "143730.342000",
          "143730.345000",
          "143730.348000",
          "143730.351000",
          "143730.356000",
          "143730.359000",
          "143730.362000",
          "143730.365000",
          "143730.368000",
          "143730.371000",
          "143730.374000",
          "143730.377000",
          "143730.380000",
          "143730.383000",
          "143730.386000",
          "143730.389000",
          "143730.392000",
          "143730.394000",
          "143730.397000",
          "143730.400000",
          "143730.403000",
          "143730.406000",
          "143750.300000",
          "143750.303000",
          "143750.306000",
          "143750.309000",
          "143750.312000",
          "143750.315000",
          "143750.318000",
          "143750.321000",
          "143750.324000",
          "143750.327000",
          "143750.330000",
          "143750.333000",
          "143750.336000",
          "143750.338000",
          "143750.341000",
          "143750.344000",
          "143750.347000",
          "143750.350000",
          "143750.355000",
          "143750.358000",
          "143750.361000",
          "143750.364000",
          "143750.367000",
          "143750.370000",
          "143750.373000",
          "143750.376000",
          "143750.379000",
          "143810.300000",
          "143810.303000",
          "143810.306000",
          "143810.309000",
          "143810.312000",
          "143810.315000",
          "143810.318000",
          "143810.321000",
          "143810.324000",
          "143810.327000",
          "143810.330000",
          "143810.333000",
          "143810.336000",
          "143810.339000",
          "143810.342000",
          "143810.344000",
          "143810.347000",
          "143810.350000",
          "143810.355000",
          "143810.358000",
          "143815.544000",
          "143815.548000",
          "143815.551000",
          "143815.554000",
          "143815.557000",
          "143815.560000"
        ],
        "InstanceNumber": [
          1,
          2,
          3,
          4,
          5,
          6,
          7,
          8,
          9,
          10,
          11,
          12,
          13,
          14,
          15,
          16,
          17,
          18,
          19,
          20,
          21,
          22,
          23,
          24,
          25,
          26,
          27,
          28,
          29,
          30,
          31,
          32,
          33,
          34,
          35,
          36,
          37,
          38,
          39,
          40,
          41,
          42,
          43,
          44,
          45,
          46,
          47,
          48,
          49,
          50,
          51,
          52,
          53,
          54,
          55,
          56,
          57,
          58,
          59,
          60,
          61,
          62,
          63,
          64,
          65,
          66,
          67,
          68,
          69,
          70,
          71,
          72,
          73,
          74,
          75,
          76,
          77,
          78,
          79,
          80,
          81,
          82,
          83,
          84,
          85,
          86,
          87,
          88,
          89,
          90,
          91,
          92,
          93,
          94,
          95,
          96,
          97,
          98,
          99,
          100,
          101,
          102,
          103,
          104,
          105,
          106,
          107,
          108,
          109,
          110,
          111,
          112,
          113,
          114,
          115,
          116,
          117,
          118,
          119,
          120,
          121,
          122,
          123,
          124,
          125,
          126,
          127,
          128,
          129,
          130,
          131,
          132,
          133,
          134,
          135,
          136,
          137,
          138,
          139,
          140,
          141,
          142,
          143,
          144,
          145,
          146,
          147,
          148,
          149,
          150,
          151,
          152,
          153,
          154,
          155,
          156,
          157,
          158,
          159,
          160,
          161,
          162,
          163,
          164,
          165,
          166,
          167,
          168,
          169,
          170,
          171,
          172,
          173,
          174,
          175,
          176,
          177,
          178,
          179,
          180,
          181,
          182,
          183,
          184,
          185,
          186,
          187,
          188,
          189,
          190,
          191,
          192
        ],
        "LargestImagePixelValue": [
          31409,
          30839,
          31087,
          30247,
          28252,
          29353,
          28421,
          29531,
          29312,
          30020,
          28820,
          29662,
          28580,
          29222,
          28895,
          28278,
          28579,
          27929,
          28526,
          28474,
          29055,
          28405,
          28686,
          28148,
          28435,
          27863,
          28366,
          28228,
          28678,
          28312,
          28951,
          28329,
          28683,
          28057,
          28249,
          28342,
          28944,
          29386,
          30290,
          28658,
          28948,
          28744,
          29133,
          28452,
          29224,
          27981,
          29454,
          28538,
          29004,
          28079,
          29089,
          29006,
          28887,
          29870,
          29299,
          28994,
          29362,
          28230,
          28965,
          28472,
          29460,
          28668,
          29434,
          28958,
          30176,
          29023,
          29696,
          28349,
          29347,
          30332,
          28573,
          32281,
          30465,
          28801,
          28251,
          28842,
          28343,
          29229,
          28552,
