{
  "aor": 0.0029803125000000003,
  "aqi": 0.017053024479166665,
  "bids_meta": {
    "AcquisitionMatrixPE": 104,
    "AcquisitionNumber": 1,
    "AcquisitionTime": "15:16:10.572500",
    "BandwidthPerPixelPhaseEncode": 16.297,
    "BaseResolution": 104,
    "BodyPartExamined": "BRAIN",
    "CogAtlasID": "doi:TODO",
    "ConsistencyInfo": "N4_VE11C_LATEST_20160120",
    "ConversionSoftware": "dcm2niix",
    "ConversionSoftwareVersion": "v1.0.20190902",
    "DerivedVendorReportedEchoSpacing": 0.000590009,
    "DeviceSerialNumber": "166018",
    "DwellTime": 2.1e-06,
    "EchoTime": 0.0376,
    "EchoTrainLength": 104,
    "EffectiveEchoSpacing": 0.000590009,
    "FlipAngle": 68,
    "ImageComments": "Unaliased_MB6_PE3_LB",
    "ImageOrientationPatientDICOM": [
      0.999966,
      -0.00497421,
      0.00660377,
      0.00628303,
      0.976385,
      -0.215949
    ],
    "ImageType": [
      "ORIGINAL",
      "PRIMARY",
      "M",
      "MB",
      "ND",
      "MOSAIC"
    ],
    "ImagingFrequency": 123.191,
    "InPlanePhaseEncodingDirectionDICOM": "COL",
    "InstitutionAddress": "Washington_Place_6_NYC_NYC_US_10003",
    "InstitutionName": "NYU_Center_for_Brain_Imaging",
    "InstitutionalDepartmentName": "Department",
    "MRAcquisitionType": "2D",
    "MagneticFieldStrength": 3,
    "Manufacturer": "Siemens",
    "ManufacturersModelName": "Prisma",
    "Modality": "MR",
    "MultibandAccelerationFactor": 6,
    "NumberOfVolumes": 192,
    "PartialFourier": 1,
    "PatientPosition": "HFS",
    "PercentPhaseFOV": 100,
    "PhaseEncodingDirection": "j",
    "PhaseEncodingSteps": 104,
    "PhaseResolution": 1,
    "PixelBandwidth": 2290,
    "ProcedureStepDescription": "Investigators_Winawer",
    "ProtocolName": "cmrr_mbepi_s6_2mm_66sl_PA_task-prf",
    "PulseSequenceDetails": "%CustomerSeq%_cmrr_mbep2d_bold",
    "ReceiveCoilActiveElements": "HC1-7",
    "ReceiveCoilName": "HeadNeck_64",
    "ReconMatrixPE": 104,
    "RepetitionTime": 1,
    "SAR": 0.0775787,
    "ScanOptions": "FS",
    "ScanningSequence": "EP",
    "SequenceName": "epfid2d1_104",
    "SequenceVariant": "SK_SS",
    "SeriesDescription": "cmrr_mbepi_s6_2mm_66sl_PA_task-prf",
    "SeriesNumber": 30,
    "ShimSetting": [
      248,
      -12599,
      -8432,
      410,
      -68,
      -15,
      -73,
      -19
    ],
    "SliceThickness": 2,
    "SliceTiming": [
      0,
      0.5325,
      0.0875,
      0.6225,
      0.1775,
      0.7125,
      0.265,
      0.8,
      0.355,
      0.89,
      0.445,
      0,
      0.5325,
      0.0875,
      0.6225,
      0.1775,
      0.7125,
      0.265,
      0.8,
      0.355,
      0.89,
      0.445,
      0,
      0.5325,
      0.0875,
      0.6225,
      0.1775,
      0.7125,
      0.265,
      0.8,
      0.355,
      0.89,
      0.445,
      0,
      0.5325,
      0.0875,
      0.6225,
      0.1775,
      0.7125,
      0.265,
      0.8,
      0.355,
      0.89,
      0.445,
      0,
      0.5325,
      0.0875,
      0.6225,
      0.1775,
      0.7125,
      0.265,
      0.8,
      0.355,
      0.89,
      0.445,
      0,
      0.5325,
      0.0875,
      0.6225,
      0.1775,
      0.7125,
      0.265,
      0.8,
      0.355,
      0.89,
      0.445
    ],
    "SoftwareVersions": "syngo_MR_E11",
    "SpacingBetweenSlices": 2,
    "StationName": "AWP166018",
    "TaskName": "prf",
    "TotalReadoutTime": 0.060771,
    "TxRefAmp": 267.495,
    "VendorReportedEchoSpacing": 0.00059,
    "WipMemBlock": "8ef6ec9f-e1da-4b64-ae86-497b89904070||Sequence: R016 ve11c/master r/8780670; Nov 27 2017 15:05:12 by eja",
    "acq_id": "PA",
    "dataset": "unknown",
    "dcmmeta_affine": [
      [
        -1.9999316930770874,
        0.012566065415740013,
        0.010747287422418594,
        105.10359954833984
      ],
      [
        0.009948423132300377,
        1.9527690410614014,
        -0.4319654107093811,
        -64.03707122802734
      ],
      [
        0.013207538984715939,
        0.43189719319343567,
        1.9527647495269775,
        -79.63056182861328
      ],
      [
        0.0,
        0.0,
        0.0,
        1.0
      ]
    ],
    "dcmmeta_reorient_transform": [
      [
        0.0,
        -1.0,
        0.0,
        103.0
      ],
      [
        1.0,
        0.0,
        0.0,
        0.0
      ],
      [
        0.0,
        0.0,
        1.0,
        0.0
      ],
      [
        0.0,
        0.0,
        0.0,
        1.0
      ]
    ],
    "dcmmeta_shape": [
      104,
      104,
      66,
      192
    ],
    "dcmmeta_slice_dim": 2,
    "dcmmeta_version": 0.6,
    "global": {
      "const": {
        "AccessionNumber": "kr5f3gr7",
        "AcquisitionMatrix": [
          104,
          0,
          0,
          104
        ],
        "AngioFlag": "N",
        "BitsAllocated": 16,
        "BitsStored": 16,
        "BodyPartExamined": "BRAIN",
        "Columns": 936,
        "EchoNumbers": 1,
        "EchoTime": 37.6,
        "EchoTrainLength": 104,
        "FlipAngle": 68.0,
        "HighBit": 15,
        "ImageOrientationPatient": [
          0.99996582313977,
          -0.0049742117076,
          0.00660376940018,
          0.00628303279754,
          0.97638451694328,
          -0.215948601691
        ],
        "ImagePositionPatient": [
          -943.59695612437,
          -945.31151405382,
          139.02975176322
        ],
        "ImageType": [
          "ORIGINAL",
          "PRIMARY",
          "M",
          "MB",
          "ND",
          "MOSAIC"
        ],
        "ImagedNucleus": "1H",
        "ImagingFrequency": 123.190615,
        "InPlanePhaseEncodingDirection": "COL",
        "MRAcquisitionType": "2D",
        "MagneticFieldStrength": 3.0,
        "Manufacturer": "SIEMENS",
        "ManufacturerModelName": "Prisma",
        "Modality": "MR",
        "NumberOfAverages": 1.0,
        "NumberOfPhaseEncodingSteps": 104,
        "PercentPhaseFieldOfView": 100.0,
        "PercentSampling": 100.0,
        "PerformedProcedureStepStartTime": "142210.868000",
        "PhotometricInterpretation": "MONOCHROME2",
        "PixelBandwidth": 2290.0,
        "PixelRepresentation": 0,
        "PixelSpacing": [
          2.0,
          2.0
        ],
        "ProtocolName": "cmrr_mbepi_s6_2mm_66sl_PA_task-prf",
        "RepetitionTime": 1000.0,
        "Rows": 936,
        "SAR": 0.07757868287475,
        "SamplesPerPixel": 1,
        "ScanOptions": "FS",
        "ScanningSequence": "EP",
        "SequenceName": "epfid2d1_104",
        "SequenceVariant": [
          "SK",
          "SS"
        ],
        "SeriesDescription": "cmrr_mbepi_s6_2mm_66sl_PA_task-prf",
        "SeriesNumber": 30,
        "SeriesTime": "151730.327000",
        "SliceLocation": -63.354188394136,
        "SliceThickness": 2.0,
        "SmallestImagePixelValue": 0,
        "SoftwareVersions": "syngo MR E11",
        "SpacingBetweenSlices": 1.9999999142616,
        "SpecificCharacterSet": "ISO_IR 100",
        "StudyID": "1",
        "StudyTime": "142210.805000",
        "TransmitCoilName": "Body",
        "VariableFlipAngleFlag": "N",
        "WindowCenterWidthExplanation": "Algo1",
        "dBdt": 0.0
      },
      "slices": {}
    },
    "modality": "bold",
    "run_id": 12,
    "session_id": "nyu3t02",
    "subject_id": "wlsubj114",
    "task_id": "prf",
    "time": {
      "samples": {
        "AcquisitionNumber": [
          1,
          2,
          3,
          4,
          5,
          6,
          7,
          8,
          9,
          10,
          11,
          12,
          13,
          14,
          15,
          16,
          17,
          18,
          19,
          20,
          21,
          22,
          23,
          24,
          25,
          26,
          27,
          28,
          29,
          30,
          31,
          32,
          33,
          34,
          35,
          36,
          37,
          38,
          39,
          40,
          41,
          42,
          43,
          44,
          45,
          46,
          47,
          48,
          49,
          50,
          51,
          52,
          53,
          54,
          55,
          56,
          57,
          58,
          59,
          60,
          61,
          62,
          63,
          64,
          65,
          66,
          67,
          68,
          69,
          70,
          71,
          72,
          73,
          74,
          75,
          76,
          77,
          78,
          79,
          80,
          81,
          82,
          83,
          84,
          85,
          86,
          87,
          88,
          89,
          90,
          91,
          92,
          93,
          94,
          95,
          96,
          97,
          98,
          99,
          100,
          101,
          102,
          103,
          104,
          105,
          106,
          107,
          108,
          109,
          110,
          111,
          112,
          113,
          114,
          115,
          116,
          117,
          118,
          119,
          120,
          121,
          122,
          123,
          124,
          125,
          126,
          127,
          128,
          129,
          130,
          131,
          132,
          133,
          134,
          135,
          136,
          137,
          138,
          139,
          140,
          141,
          142,
          143,
          144,
          145,
          146,
          147,
          148,
          149,
          150,
          151,
          152,
          153,
          154,
          155,
          156,
          157,
          158,
          159,
          160,
          161,
          162,
          163,
          164,
          165,
          166,
          167,
          168,
          169,
          170,
          171,
          172,
          173,
          174,
          175,
          176,
          177,
          178,
          179,
          180,
          181,
          182,
          183,
          184,
          185,
          186,
          187,
          188,
          189,
          190,
          191,
          192
        ],
        "AcquisitionTime": [
          "151610.572500",
          "151611.572500",
          "151612.572500",
          "151613.572500",
          "151614.572500",
          "151615.572500",
          "151616.572500",
          "151617.572500",
          "151618.572500",
          "151619.572500",
          "151620.572500",
          "151621.572500",
          "151622.572500",
          "151623.572500",
          "151624.572500",
          "151625.572500",
          "151626.572500",
          "151627.572500",
          "151628.572500",
          "151629.572500",
          "151630.572500",
          "151631.572500",
          "151632.572500",
          "151633.572500",
          "151634.572500",
          "151635.572500",
          "151636.572500",
          "151637.572500",
          "151638.572500",
          "151639.572500",
          "151640.572500",
          "151641.572500",
          "151642.572500",
          "151643.572500",
          "151644.572500",
          "151645.572500",
          "151646.572500",
          "151647.572500",
          "151648.572500",
          "151649.572500",
          "151650.572500",
          "151651.572500",
          "151652.572500",
          "151653.572500",
          "151654.572500",
          "151655.572500",
          "151656.572500",
          "151657.572500",
          "151658.572500",
          "151659.572500",
          "151700.572500",
          "151701.572500",
          "151702.572500",
          "151703.572500",
          "151704.572500",
          "151705.572500",
          "151706.572500",
          "151707.572500",
          "151708.572500",
          "151709.572500",
          "151710.572500",
          "151711.572500",
          "151712.572500",
          "151713.572500",
          "151714.572500",
          "151715.572500",
          "151716.572500",
          "151717.572500",
          "151718.572500",
          "151719.572500",
          "151720.572500",
          "151721.572500",
          "151722.572500",
          "151723.572500",
          "151724.572500",
          "151725.572500",
          "151726.572500",
          "151727.572500",
          "151728.572500",
          "151729.572500",
          "151730.572500",
          "151731.572500",
          "151732.572500",
          "151733.572500",
          "151734.572500",
          "151735.572500",
          "151736.572500",
          "151737.572500",
          "151738.572500",
          "151739.572500",
          "151740.572500",
          "151741.572500",
          "151742.572500",
          "151743.572500",
          "151744.572500",
          "151745.572500",
          "151746.572500",
          "151747.572500",
          "151748.572500",
          "151749.572500",
          "151750.572500",
          "151751.572500",
          "151752.572500",
          "151753.572500",
          "151754.572500",
          "151755.572500",
          "151756.572500",
          "151757.572500",
          "151758.572500",
          "151759.572500",
          "151800.572500",
          "151801.572500",
          "151802.572500",
          "151803.572500",
          "151804.572500",
          "151805.572500",
          "151806.572500",
          "151807.572500",
          "151808.572500",
          "151809.572500",
          "151810.572500",
          "151811.572500",
          "151812.572500",
          "151813.572500",
          "151814.572500",
          "151815.572500",
          "151816.572500",
          "151817.572500",
          "151818.572500",
          "151819.572500",
          "151820.572500",
          "151821.572500",
          "151822.572500",
          "151823.572500",
          "151824.572500",
          "151825.572500",
          "151826.572500",
          "151827.572500",
          "151828.572500",
          "151829.572500",
          "151830.572500",
          "151831.572500",
          "151832.572500",
          "151833.572500",
          "151834.572500",
          "151835.572500",
          "151836.572500",
          "151837.572500",
          "151838.572500",
          "151839.572500",
          "151840.572500",
          "151841.572500",
          "151842.572500",
          "151843.572500",
          "151844.572500",
          "151845.572500",
          "151846.572500",
          "151847.572500",
          "151848.572500",
          "151849.572500",
          "151850.572500",
          "151851.572500",
          "151852.572500",
          "151853.572500",
          "151854.572500",
          "151855.572500",
          "151856.572500",
          "151857.572500",
          "151858.572500",
          "151859.572500",
          "151900.572500",
          "151901.572500",
          "151902.572500",
          "151903.572500",
          "151904.572500",
          "151905.572500",
          "151906.572500",
          "151907.572500",
          "151908.572500",
          "151909.572500",
          "151910.572500",
          "151911.572500",
          "151912.572500",
          "151913.572500",
          "151914.572500",
          "151915.572500",
          "151916.572500",
          "151917.572500",
          "151918.572500",
          "151919.572500",
          "151920.572500",
          "151921.572500"
        ],
        "ContentTime": [
          "151730.330000",
          "151730.333000",
          "151730.336000",
          "151730.339000",
          "151730.342000",
          "151730.345000",
          "151730.348000",
          "151730.351000",
          "151730.354000",
          "151730.357000",
          "151730.364000",
          "151730.376000",
          "151730.379000",
          "151730.382000",
          "151730.385000",
          "151730.393000",
          "151730.396000",
          "151730.399000",
          "151730.402000",
          "151730.405000",
          "151730.408000",
          "151730.411000",
          "151730.414000",
          "151730.417000",
          "151730.422000",
          "151730.426000",
          "151730.431000",
          "151730.434000",
          "151730.437000",
          "151730.440000",
          "151730.443000",
          "151730.446000",
          "151730.449000",
          "151730.452000",
          "151730.454000",
          "151750.300000",
          "151750.303000",
          "151750.306000",
          "151750.309000",
          "151750.312000",
          "151750.315000",
          "151750.318000",
          "151750.325000",
          "151750.328000",
          "151750.331000",
          "151750.334000",
          "151750.337000",
          "151750.340000",
          "151750.343000",
          "151750.345000",
          "151750.348000",
          "151750.351000",
          "151750.354000",
          "151750.357000",
          "151750.360000",
          "151750.363000",
          "151750.366000",
          "151750.369000",
          "151750.372000",
          "151750.375000",
          "151750.378000",
          "151750.381000",
          "151750.390000",
          "151750.393000",
          "151810.300000",
          "151810.303000",
          "151810.306000",
          "151810.309000",
          "151810.312000",
          "151810.315000",
          "151810.318000",
          "151810.321000",
          "151810.324000",
          "151810.327000",
          "151810.330000",
          "151810.332000",
          "151810.335000",
          "151810.338000",
          "151810.341000",
          "151810.344000",
          "151810.347000",
          "151810.350000",
          "151810.353000",
          "151810.356000",
          "151810.359000",
          "151810.362000",
          "151810.365000",
          "151810.368000",
          "151810.371000",
          "151810.374000",
          "151810.377000",
          "151810.380000",
          "151830.300000",
          "151830.303000",
          "151830.306000",
          "151830.309000",
          "151830.312000",
          "151830.315000",
          "151830.318000",
          "151830.321000",
          "151830.324000",
          "151830.327000",
          "151830.330000",
          "151830.333000",
          "151830.336000",
          "151830.339000",
          "151830.342000",
          "151830.345000",
          "151830.348000",
          "151830.351000",
          "151830.354000",
          "151830.357000",
          "151830.360000",
          "151830.363000",
          "151830.366000",
          "151830.369000",
          "151830.372000",
          "151830.375000",
          "151830.378000",
          "151830.381000",
          "151850.299000",
          "151850.302000",
          "151850.305000",
          "151850.308000",
          "151850.311000",
          "151850.314000",
          "151850.317000",
          "151850.320000",
          "151850.323000",
          "151850.326000",
          "151850.329000",
          "151850.332000",
          "151850.335000",
          "151850.338000",
          "151850.340000",
          "151850.343000",
          "151850.346000",
          "151850.349000",
          "151850.352000",
          "151850.355000",
          "151850.358000",
          "151850.361000",
          "151850.364000",
          "151850.367000",
          "151850.370000",
          "151850.373000",
          "151850.376000",
          "151850.379000",
          "151850.382000",
          "151910.300000",
          "151910.303000",
          "151910.306000",
          "151910.309000",
          "151910.312000",
          "151910.315000",
          "151910.318000",
          "151910.321000",
          "151910.324000",
          "151910.327000",
          "151910.330000",
          "151910.333000",
          "151910.336000",
          "151910.339000",
          "151910.342000",
          "151910.345000",
          "151910.348000",
          "151910.351000",
          "151910.354000",
          "151910.356000",
          "151910.359000",
          "151910.363000",
          "151910.365000",
          "151910.368000",
          "151910.371000",
          "151910.374000",
          "151910.377000",
          "151910.380000",
          "151922.995000",
          "151923.001000",
          "151923.005000",
          "151923.008000",
          "151923.012000",
          "151923.016000",
          "151923.019000",
          "151923.022000",
          "151923.027000",
          "151923.033000",
          "151923.036000",
          "151923.039000",
          "151923.043000",
          "151923.046000",
          "151923.049000"
        ],
        "InstanceCreationTime": [
          "151730.330000",
          "151730.333000",
          "151730.336000",
          "151730.339000",
          "151730.342000",
          "151730.345000",
          "151730.348000",
          "151730.351000",
          "151730.354000",
          "151730.357000",
          "151730.364000",
          "151730.376000",
          "151730.379000",
          "151730.382000",
          "151730.385000",
          "151730.393000",
          "151730.396000",
          "151730.399000",
          "151730.402000",
          "151730.405000",
          "151730.408000",
          "151730.411000",
          "151730.414000",
          "151730.417000",
          "151730.422000",
          "151730.426000",
          "151730.431000",
          "151730.434000",
          "151730.437000",
          "151730.440000",
          "151730.443000",
          "151730.446000",
          "151730.449000",
          "151730.452000",
          "151730.454000",
          "151750.300000",
          "151750.303000",
          "151750.306000",
          "151750.309000",
          "151750.312000",
          "151750.315000",
          "151750.318000",
          "151750.325000",
          "151750.328000",
          "151750.331000",
          "151750.334000",
          "151750.337000",
          "151750.340000",
          "151750.343000",
          "151750.345000",
          "151750.348000",
          "151750.351000",
          "151750.354000",
          "151750.357000",
          "151750.360000",
          "151750.363000",
          "151750.366000",
          "151750.369000",
          "151750.372000",
          "151750.375000",
          "151750.378000",
          "151750.381000",
          "151750.390000",
          "151750.393000",
          "151810.300000",
          "151810.303000",
          "151810.306000",
          "151810.309000",
          "151810.312000",
          "151810.315000",
          "151810.318000",
          "151810.321000",
          "151810.324000",
          "151810.327000",
          "151810.330000",
          "151810.332000",
          "151810.335000",
          "151810.338000",
          "151810.341000",
          "151810.344000",
          "151810.347000",
          "151810.350000",
          "151810.353000",
          "151810.356000",
          "151810.359000",
          "151810.362000",
          "151810.365000",
          "151810.368000",
          "151810.371000",
          "151810.374000",
          "151810.377000",
          "151810.380000",
          "151830.300000",
          "151830.303000",
          "151830.306000",
          "151830.309000",
          "151830.312000",
          "151830.315000",
          "151830.318000",
          "151830.321000",
          "151830.324000",
          "151830.327000",
          "151830.330000",
          "151830.333000",
          "151830.336000",
          "151830.339000",
          "151830.342000",
          "151830.345000",
          "151830.348000",
          "151830.351000",
          "151830.354000",
          "151830.357000",
          "151830.360000",
          "151830.363000",
          "151830.366000",
          "151830.369000",
          "151830.372000",
          "151830.375000",
          "151830.378000",
          "151830.381000",
          "151850.299000",
          "151850.302000",
          "151850.305000",
          "151850.308000",
          "151850.311000",
          "151850.314000",
          "151850.317000",
          "151850.320000",
          "151850.323000",
          "151850.326000",
          "151850.329000",
          "151850.332000",
          "151850.335000",
          "151850.338000",
          "151850.340000",
          "151850.343000",
          "151850.346000",
          "151850.349000",
          "151850.352000",
          "151850.355000",
          "151850.358000",
          "151850.361000",
          "151850.364000",
          "151850.367000",
          "151850.370000",
          "151850.373000",
          "151850.376000",
          "151850.379000",
          "151850.382000",
          "151910.300000",
          "151910.303000",
          "151910.306000",
          "151910.309000",
          "151910.312000",
          "151910.315000",
          "151910.318000",
          "151910.321000",
          "151910.324000",
          "151910.327000",
          "151910.330000",
          "151910.333000",
          "151910.336000",
          "151910.339000",
          "151910.342000",
          "151910.345000",
          "151910.348000",
          "151910.351000",
          "151910.354000",
          "151910.356000",
          "151910.359000",
          "151910.363000",
          "151910.365000",
          "151910.368000",
          "151910.371000",
          "151910.374000",
          "151910.377000",
          "151910.380000",
          "151922.995000",
          "151923.001000",
          "151923.005000",
          "151923.008000",
          "151923.012000",
          "151923.016000",
          "151923.019000",
          "151923.022000",
          "151923.027000",
          "151923.033000",
          "151923.036000",
          "151923.039000",
          "151923.043000",
          "151923.046000",
          "151923.049000"
        ],
        "InstanceNumber": [
          1,
          2,
          3,
          4,
          5,
          6,
          7,
          8,
          9,
          10,
          11,
          12,
          13,
          14,
          15,
          16,
          17,
          18,
          19,
          20,
          21,
          22,
          23,
          24,
          25,
          26,
          27,
          28,
          29,
          30,
          31,
          32,
          33,
          34,
          35,
          36,
          37,
          38,
          39,
          40,
          41,
          42,
          43,
          44,
          45,
          46,
          47,
          48,
          49,
          50,
          51,
          52,
          53,
          54,
          55,
          56,
          57,
          58,
          59,
          60,
          61,
          62,
          63,
          64,
          65,
          66,
          67,
          68,
          69,
          70,
          71,
          72,
          73,
          74,
          75,
          76,
          77,
          78,
          79,
          80,
          81,
          82,
          83,
          84,
          85,
          86,
          87,
          88,
          89,
          90,
          91,
          92,
          93,
          94,
          95,
          96,
          97,
          98,
          99,
          100,
          101,
          102,
          103,
          104,
          105,
          106,
          107,
          108,
          109,
          110,
          111,
          112,
          113,
          114,
          115,
          116,
          117,
          118,
          119,
          120,
          121,
          122,
          123,
          124,
          125,
          126,
          127,
          128,
          129,
          130,
          131,
          132,
          133,
          134,
          135,
          136,
          137,
          138,
          139,
          140,
          141,
          142,
          143,
          144,
          145,
          146,
          147,
          148,
          149,
          150,
          151,
          152,
          153,
          154,
          155,
          156,
          157,
          158,
          159,
          160,
          161,
          162,
          163,
          164,
          165,
          166,
          167,
          168,
          169,
          170,
          171,
          172,
          173,
          174,
          175,
          176,
          177,
          178,
          179,
          180,
          181,
          182,
          183,
          184,
          185,
          186,
          187,
          188,
          189,
          190,
          191,
          192
        ],
        "LargestImagePixelValue": [
          31616,
          30858,
          29699,
          29961,
          30944,
          29844,
          30505,
          28895,
          28978,
          28355,
          29429,
          28413,
          28668,
          31081,
          28742,
          29382,
          29761,
          29456,
          29774,
          29465,
          29789,
          29200,
          29783,
          29580,
          32625,
          27564,
          28382,
          30849,
          28540,
          27953,
          29058,
          28384,
          30647,
          28009,
          28227,
          29373,
          29153,
          29295,
          28626,
          31208,
          29179,
          28383,
          29467,
          29823,
          29995,
          30810,
          30215,
          30330,
          29406,
          29998,
          30280,
          30619,
          30199,
          30314,
          30242,
          30728,
          31324,
          30724,
          30793,
          30886,
          29708,
          30159,
          30550,
          31070,
          30821,
          30725,
          30610,
          30965,
          30537,
          30775,
          31518,
          30993,
          31372,
          30807,
          30840,
          31484,
          31183,
          31272,
          31057,
