{
  "aor": 0.0011391623036649215,
  "aqi": 0.012183476701570679,
  "bids_meta": {
    "AcquisitionMatrixPE": 104,
    "AcquisitionNumber": 1,
    "AcquisitionTime": "14:53:21.510000",
    "BandwidthPerPixelPhaseEncode": 16.297,
    "BaseResolution": 104,
    "BodyPartExamined": "BRAIN",
    "CogAtlasID": "doi:TODO",
    "ConsistencyInfo": "N4_VE11C_LATEST_20160120",
    "ConversionSoftware": "dcm2niix",
    "ConversionSoftwareVersion": "v1.0.20190902",
    "DerivedVendorReportedEchoSpacing": 0.000590009,
    "DeviceSerialNumber": "166018",
    "DwellTime": 2.1e-06,
    "EchoTime": 0.0376,
    "EchoTrainLength": 104,
    "EffectiveEchoSpacing": 0.000590009,
    "FlipAngle": 68,
    "ImageComments": "Unaliased_MB6_PE3_LB",
    "ImageOrientationPatientDICOM": [
      0.999966,
      -0.00497421,
      0.00660377,
      0.00628303,
      0.976385,
      -0.215949
    ],
    "ImageType": [
      "ORIGINAL",
      "PRIMARY",
      "M",
      "MB",
      "ND",
      "MOSAIC"
    ],
    "ImagingFrequency": 123.191,
    "InPlanePhaseEncodingDirectionDICOM": "COL",
    "InstitutionAddress": "Washington_Place_6_NYC_NYC_US_10003",
    "InstitutionName": "NYU_Center_for_Brain_Imaging",
    "InstitutionalDepartmentName": "Department",
    "MRAcquisitionType": "2D",
    "MagneticFieldStrength": 3,
    "Manufacturer": "Siemens",
    "ManufacturersModelName": "Prisma",
    "Modality": "MR",
    "MultibandAccelerationFactor": 6,
    "NumberOfVolumes": 192,
    "PartialFourier": 1,
    "PatientPosition": "HFS",
    "PercentPhaseFOV": 100,
    "PhaseEncodingDirection": "j",
    "PhaseEncodingSteps": 104,
    "PhaseResolution": 1,
    "PixelBandwidth": 2290,
    "ProcedureStepDescription": "Investigators_Winawer",
    "ProtocolName": "cmrr_mbepi_s6_2mm_66sl_PA_task-prf",
    "PulseSequenceDetails": "%CustomerSeq%_cmrr_mbep2d_bold",
    "ReceiveCoilActiveElements": "HC1-7",
    "ReceiveCoilName": "HeadNeck_64",
    "ReconMatrixPE": 104,
    "RepetitionTime": 1,
    "SAR": 0.0775787,
    "ScanOptions": "FS",
    "ScanningSequence": "EP",
    "SequenceName": "epfid2d1_104",
    "SequenceVariant": "SK_SS",
    "SeriesDescription": "cmrr_mbepi_s6_2mm_66sl_PA_task-prf",
    "SeriesNumber": 20,
    "ShimSetting": [
      248,
      -12599,
      -8432,
      410,
      -68,
      -15,
      -73,
      -19
    ],
    "SliceThickness": 2,
    "SliceTiming": [
      0,
      0.535,
      0.09,
      0.6225,
      0.1775,
      0.7125,
      0.2675,
      0.8025,
      0.3575,
      0.89,
      0.445,
      0,
      0.535,
      0.09,
      0.6225,
      0.1775,
      0.7125,
      0.2675,
      0.8025,
      0.3575,
      0.89,
      0.445,
      0,
      0.535,
      0.09,
      0.6225,
      0.1775,
      0.7125,
      0.2675,
      0.8025,
      0.3575,
      0.89,
      0.445,
      0,
      0.535,
      0.09,
      0.6225,
      0.1775,
      0.7125,
      0.2675,
      0.8025,
      0.3575,
      0.89,
      0.445,
      0,
      0.535,
      0.09,
      0.6225,
      0.1775,
      0.7125,
      0.2675,
      0.8025,
      0.3575,
      0.89,
      0.445,
      0,
      0.535,
      0.09,
      0.6225,
      0.1775,
      0.7125,
      0.2675,
      0.8025,
      0.3575,
      0.89,
      0.445
    ],
    "SoftwareVersions": "syngo_MR_E11",
    "SpacingBetweenSlices": 2,
    "StationName": "AWP166018",
    "TaskName": "prf",
    "TotalReadoutTime": 0.060771,
    "TxRefAmp": 267.495,
    "VendorReportedEchoSpacing": 0.00059,
    "WipMemBlock": "8ef6ec9f-e1da-4b64-ae86-497b89904070||Sequence: R016 ve11c/master r/8780670; Nov 27 2017 15:05:12 by eja",
    "acq_id": "PA",
    "dataset": "unknown",
    "dcmmeta_affine": [
      [
        -1.9999316930770874,
        0.012566065415740013,
        0.010747287422418594,
        105.10359954833984
      ],
      [
        0.009948423132300377,
        1.9527690410614014,
        -0.4319654107093811,
        -64.03707122802734
      ],
      [
        0.013207538984715939,
        0.43189719319343567,
        1.9527647495269775,
        -79.63056182861328
      ],
      [
        0.0,
        0.0,
        0.0,
        1.0
      ]
    ],
    "dcmmeta_reorient_transform": [
      [
        0.0,
        -1.0,
        0.0,
        103.0
      ],
      [
        1.0,
        0.0,
        0.0,
        0.0
      ],
      [
        0.0,
        0.0,
        1.0,
        0.0
      ],
      [
        0.0,
        0.0,
        0.0,
        1.0
      ]
    ],
    "dcmmeta_shape": [
      104,
      104,
      66,
      192
    ],
    "dcmmeta_slice_dim": 2,
    "dcmmeta_version": 0.6,
    "global": {
      "const": {
        "AccessionNumber": "kr5f3gr7",
        "AcquisitionMatrix": [
          104,
          0,
          0,
          104
        ],
        "AngioFlag": "N",
        "BitsAllocated": 16,
        "BitsStored": 16,
        "BodyPartExamined": "BRAIN",
        "Columns": 936,
        "EchoNumbers": 1,
        "EchoTime": 37.6,
        "EchoTrainLength": 104,
        "FlipAngle": 68.0,
        "HighBit": 15,
        "ImageOrientationPatient": [
          0.99996582313977,
          -0.0049742117076,
          0.00660376940018,
          0.00628303279754,
          0.97638451694328,
          -0.215948601691
        ],
        "ImagePositionPatient": [
          -943.59695612437,
          -945.31151405382,
          139.02975176322
        ],
        "ImageType": [
          "ORIGINAL",
          "PRIMARY",
          "M",
          "MB",
          "ND",
          "MOSAIC"
        ],
        "ImagedNucleus": "1H",
        "ImagingFrequency": 123.190615,
        "InPlanePhaseEncodingDirection": "COL",
        "MRAcquisitionType": "2D",
        "MagneticFieldStrength": 3.0,
        "Manufacturer": "SIEMENS",
        "ManufacturerModelName": "Prisma",
        "Modality": "MR",
        "NumberOfAverages": 1.0,
        "NumberOfPhaseEncodingSteps": 104,
        "PercentPhaseFieldOfView": 100.0,
        "PercentSampling": 100.0,
        "PerformedProcedureStepStartTime": "142210.868000",
        "PhotometricInterpretation": "MONOCHROME2",
        "PixelBandwidth": 2290.0,
        "PixelRepresentation": 0,
        "PixelSpacing": [
          2.0,
          2.0
        ],
        "ProtocolName": "cmrr_mbepi_s6_2mm_66sl_PA_task-prf",
        "RepetitionTime": 1000.0,
        "Rows": 936,
        "SAR": 0.07757868287475,
        "SamplesPerPixel": 1,
        "ScanOptions": "FS",
        "ScanningSequence": "EP",
        "SequenceName": "epfid2d1_104",
        "SequenceVariant": [
          "SK",
          "SS"
        ],
        "SeriesDescription": "cmrr_mbepi_s6_2mm_66sl_PA_task-prf",
        "SeriesNumber": 20,
        "SeriesTime": "145430.181000",
        "SliceLocation": -63.354188394136,
        "SliceThickness": 2.0,
        "SmallestImagePixelValue": 0,
        "SoftwareVersions": "syngo MR E11",
        "SpacingBetweenSlices": 1.9999999142616,
        "SpecificCharacterSet": "ISO_IR 100",
        "StudyID": "1",
        "StudyTime": "142210.805000",
        "TransmitCoilName": "Body",
        "VariableFlipAngleFlag": "N",
        "WindowCenterWidthExplanation": "Algo1",
        "dBdt": 0.0
      },
      "slices": {}
    },
    "modality": "bold",
    "run_id": 7,
    "session_id": "nyu3t02",
    "subject_id": "wlsubj114",
    "task_id": "prf",
    "time": {
      "samples": {
        "AcquisitionNumber": [
          1,
          2,
          3,
          4,
          5,
          6,
          7,
          8,
          9,
          10,
          11,
          12,
          13,
          14,
          15,
          16,
          17,
          18,
          19,
          20,
          21,
          22,
          23,
          24,
          25,
          26,
          27,
          28,
          29,
          30,
          31,
          32,
          33,
          34,
          35,
          36,
          37,
          38,
          39,
          40,
          41,
          42,
          43,
          44,
          45,
          46,
          47,
          48,
          49,
          50,
          51,
          52,
          53,
          54,
          55,
          56,
          57,
          58,
          59,
          60,
          61,
          62,
          63,
          64,
          65,
          66,
          67,
          68,
          69,
          70,
          71,
          72,
          73,
          74,
          75,
          76,
          77,
          78,
          79,
          80,
          81,
          82,
          83,
          84,
          85,
          86,
          87,
          88,
          89,
          90,
          91,
          92,
          93,
          94,
          95,
          96,
          97,
          98,
          99,
          100,
          101,
          102,
          103,
          104,
          105,
          106,
          107,
          108,
          109,
          110,
          111,
          112,
          113,
          114,
          115,
          116,
          117,
          118,
          119,
          120,
          121,
          122,
          123,
          124,
          125,
          126,
          127,
          128,
          129,
          130,
          131,
          132,
          133,
          134,
          135,
          136,
          137,
          138,
          139,
          140,
          141,
          142,
          143,
          144,
          145,
          146,
          147,
          148,
          149,
          150,
          151,
          152,
          153,
          154,
          155,
          156,
          157,
          158,
          159,
          160,
          161,
          162,
          163,
          164,
          165,
          166,
          167,
          168,
          169,
          170,
          171,
          172,
          173,
          174,
          175,
          176,
          177,
          178,
          179,
          180,
          181,
          182,
          183,
          184,
          185,
          186,
          187,
          188,
          189,
          190,
          191,
          192
        ],
        "AcquisitionTime": [
          "145321.510000",
          "145322.510000",
          "145323.510000",
          "145324.510000",
          "145325.510000",
          "145326.510000",
          "145327.510000",
          "145328.510000",
          "145329.510000",
          "145330.510000",
          "145331.510000",
          "145332.510000",
          "145333.510000",
          "145334.510000",
          "145335.510000",
          "145336.510000",
          "145337.510000",
          "145338.510000",
          "145339.510000",
          "145340.510000",
          "145341.510000",
          "145342.510000",
          "145343.510000",
          "145344.510000",
          "145345.510000",
          "145346.510000",
          "145347.510000",
          "145348.510000",
          "145349.510000",
          "145350.510000",
          "145351.510000",
          "145352.510000",
          "145353.510000",
          "145354.510000",
          "145355.510000",
          "145356.510000",
          "145357.510000",
          "145358.510000",
          "145359.510000",
          "145400.510000",
          "145401.510000",
          "145402.510000",
          "145403.510000",
          "145404.510000",
          "145405.510000",
          "145406.510000",
          "145407.510000",
          "145408.510000",
          "145409.510000",
          "145410.510000",
          "145411.510000",
          "145412.510000",
          "145413.510000",
          "145414.510000",
          "145415.510000",
          "145416.510000",
          "145417.510000",
          "145418.510000",
          "145419.510000",
          "145420.510000",
          "145421.510000",
          "145422.510000",
          "145423.510000",
          "145424.510000",
          "145425.510000",
          "145426.510000",
          "145427.510000",
          "145428.510000",
          "145429.510000",
          "145430.510000",
          "145431.510000",
          "145432.510000",
          "145433.510000",
          "145434.510000",
          "145435.510000",
          "145436.510000",
          "145437.510000",
          "145438.510000",
          "145439.510000",
          "145440.510000",
          "145441.510000",
          "145442.510000",
          "145443.510000",
          "145444.510000",
          "145445.510000",
          "145446.510000",
          "145447.510000",
          "145448.510000",
          "145449.510000",
          "145450.510000",
          "145451.510000",
          "145452.510000",
          "145453.510000",
          "145454.510000",
          "145455.510000",
          "145456.510000",
          "145457.510000",
          "145458.510000",
          "145459.510000",
          "145500.510000",
          "145501.510000",
          "145502.510000",
          "145503.510000",
          "145504.510000",
          "145505.510000",
          "145506.510000",
          "145507.510000",
          "145508.510000",
          "145509.510000",
          "145510.510000",
          "145511.510000",
          "145512.510000",
          "145513.510000",
          "145514.510000",
          "145515.510000",
          "145516.510000",
          "145517.510000",
          "145518.510000",
          "145519.510000",
          "145520.510000",
          "145521.510000",
          "145522.510000",
          "145523.510000",
          "145524.510000",
          "145525.510000",
          "145526.510000",
          "145527.510000",
          "145528.510000",
          "145529.510000",
          "145530.510000",
          "145531.510000",
          "145532.510000",
          "145533.510000",
          "145534.510000",
          "145535.510000",
          "145536.510000",
          "145537.510000",
          "145538.510000",
          "145539.510000",
          "145540.510000",
          "145541.510000",
          "145542.510000",
          "145543.510000",
          "145544.510000",
          "145545.510000",
          "145546.510000",
          "145547.510000",
          "145548.510000",
          "145549.510000",
          "145550.510000",
          "145551.510000",
          "145552.510000",
          "145553.510000",
          "145554.510000",
          "145555.510000",
          "145556.510000",
          "145557.510000",
          "145558.510000",
          "145559.510000",
          "145600.510000",
          "145601.510000",
          "145602.510000",
          "145603.510000",
          "145604.510000",
          "145605.510000",
          "145606.510000",
          "145607.510000",
          "145608.510000",
          "145609.510000",
          "145610.510000",
          "145611.510000",
          "145612.510000",
          "145613.510000",
          "145614.510000",
          "145615.510000",
          "145616.510000",
          "145617.510000",
          "145618.510000",
          "145619.510000",
          "145620.510000",
          "145621.510000",
          "145622.510000",
          "145623.510000",
          "145624.510000",
          "145625.510000",
          "145626.510000",
          "145627.510000",
          "145628.510000",
          "145629.510000",
          "145630.510000",
          "145631.510000",
          "145632.510000"
        ],
        "ContentTime": [
          "145430.184000",
          "145430.187000",
          "145430.190000",
          "145430.193000",
          "145430.196000",
          "145430.199000",
          "145430.211000",
          "145430.214000",
          "145430.217000",
          "145430.220000",
          "145430.223000",
          "145430.226000",
          "145430.229000",
          "145430.232000",
          "145430.242000",
          "145430.244000",
          "145430.247000",
          "145430.250000",
          "145430.253000",
          "145430.256000",
          "145430.259000",
          "145430.262000",
          "145430.265000",
          "145430.268000",
          "145430.271000",
          "145430.274000",
          "145450.152000",
          "145450.155000",
          "145450.158000",
          "145450.161000",
          "145450.164000",
          "145450.167000",
          "145450.169000",
          "145450.172000",
          "145450.175000",
          "145450.178000",
          "145450.181000",
          "145450.184000",
          "145450.187000",
          "145450.190000",
          "145450.193000",
          "145450.196000",
          "145450.199000",
          "145450.202000",
          "145450.205000",
          "145450.208000",
          "145450.211000",
          "145450.214000",
          "145450.217000",
          "145450.220000",
          "145450.222000",
          "145450.225000",
          "145450.228000",
          "145450.231000",
          "145450.234000",
          "145510.152000",
          "145510.155000",
          "145510.158000",
          "145510.161000",
          "145510.164000",
          "145510.167000",
          "145510.182000",
          "145510.185000",
          "145510.188000",
          "145510.191000",
          "145510.194000",
          "145510.197000",
          "145510.200000",
          "145510.203000",
          "145510.205000",
          "145510.208000",
          "145510.211000",
          "145510.214000",
          "145510.217000",
          "145510.220000",
          "145510.223000",
          "145510.226000",
          "145510.229000",
          "145510.232000",
          "145510.235000",
          "145510.238000",
          "145510.241000",
          "145510.244000",
          "145530.151000",
          "145530.154000",
          "145530.157000",
          "145530.160000",
          "145530.163000",
          "145530.166000",
          "145530.169000",
          "145530.172000",
          "145530.175000",
          "145530.178000",
          "145530.181000",
          "145530.184000",
          "145530.187000",
          "145530.190000",
          "145530.193000",
          "145530.196000",
          "145530.199000",
          "145530.202000",
          "145530.205000",
          "145530.208000",
          "145530.211000",
          "145530.214000",
          "145530.217000",
          "145530.220000",
          "145530.248000",
          "145530.251000",
          "145530.254000",
          "145530.257000",
          "145550.151000",
          "145550.154000",
          "145550.157000",
          "145550.160000",
          "145550.163000",
          "145550.166000",
          "145550.169000",
          "145550.172000",
          "145550.175000",
          "145550.178000",
          "145550.181000",
          "145550.184000",
          "145550.187000",
          "145550.190000",
          "145550.192000",
          "145550.195000",
          "145550.198000",
          "145550.201000",
          "145550.204000",
          "145550.207000",
          "145550.210000",
          "145550.213000",
          "145550.216000",
          "145550.219000",
          "145550.222000",
          "145550.225000",
          "145550.228000",
          "145550.231000",
          "145550.234000",
          "145610.152000",
          "145610.155000",
          "145610.158000",
          "145610.161000",
          "145610.164000",
          "145610.167000",
          "145610.170000",
          "145610.173000",
          "145610.176000",
          "145610.179000",
          "145610.182000",
          "145610.185000",
          "145610.188000",
          "145610.191000",
          "145610.194000",
          "145610.197000",
          "145610.200000",
          "145610.203000",
          "145610.206000",
          "145610.208000",
          "145610.211000",
          "145610.214000",
          "145610.217000",
          "145610.220000",
          "145610.223000",
          "145610.226000",
          "145610.229000",
          "145630.152000",
          "145630.155000",
          "145630.158000",
          "145630.161000",
          "145630.164000",
          "145630.167000",
          "145630.170000",
          "145630.173000",
          "145630.176000",
          "145630.179000",
          "145630.182000",
          "145630.185000",
          "145630.188000",
          "145630.191000",
          "145630.194000",
          "145630.197000",
          "145630.200000",
          "145630.203000",
          "145630.205000",
          "145630.208000",
          "145634.468000",
          "145634.472000",
          "145634.475000",
          "145634.478000",
          "145634.481000"
        ],
        "InstanceCreationTime": [
          "145430.184000",
          "145430.187000",
          "145430.190000",
          "145430.193000",
          "145430.196000",
          "145430.199000",
          "145430.211000",
          "145430.214000",
          "145430.217000",
          "145430.220000",
          "145430.223000",
          "145430.226000",
          "145430.229000",
          "145430.232000",
          "145430.242000",
          "145430.244000",
          "145430.247000",
          "145430.250000",
          "145430.253000",
          "145430.256000",
          "145430.259000",
          "145430.262000",
          "145430.265000",
          "145430.268000",
          "145430.271000",
          "145430.274000",
          "145450.152000",
          "145450.155000",
          "145450.158000",
          "145450.161000",
          "145450.164000",
          "145450.167000",
          "145450.169000",
          "145450.172000",
          "145450.175000",
          "145450.178000",
          "145450.181000",
          "145450.184000",
          "145450.187000",
          "145450.190000",
          "145450.193000",
          "145450.196000",
          "145450.199000",
          "145450.202000",
          "145450.205000",
          "145450.208000",
          "145450.211000",
          "145450.214000",
          "145450.217000",
          "145450.220000",
          "145450.222000",
          "145450.225000",
          "145450.228000",
          "145450.231000",
          "145450.234000",
          "145510.152000",
          "145510.155000",
          "145510.158000",
          "145510.161000",
          "145510.164000",
          "145510.167000",
          "145510.182000",
          "145510.185000",
          "145510.188000",
          "145510.191000",
          "145510.194000",
          "145510.197000",
          "145510.200000",
          "145510.203000",
          "145510.205000",
          "145510.208000",
          "145510.211000",
          "145510.214000",
          "145510.217000",
          "145510.220000",
          "145510.223000",
          "145510.226000",
          "145510.229000",
          "145510.232000",
          "145510.235000",
          "145510.238000",
          "145510.241000",
          "145510.244000",
          "145530.151000",
          "145530.154000",
          "145530.157000",
          "145530.160000",
          "145530.163000",
          "145530.166000",
          "145530.169000",
          "145530.172000",
          "145530.175000",
          "145530.178000",
          "145530.181000",
          "145530.184000",
          "145530.187000",
          "145530.190000",
          "145530.193000",
          "145530.196000",
          "145530.199000",
          "145530.202000",
          "145530.205000",
          "145530.208000",
          "145530.211000",
          "145530.214000",
          "145530.217000",
          "145530.220000",
          "145530.248000",
          "145530.251000",
          "145530.254000",
          "145530.257000",
          "145550.151000",
          "145550.154000",
          "145550.157000",
          "145550.160000",
          "145550.163000",
          "145550.166000",
          "145550.169000",
          "145550.172000",
          "145550.175000",
          "145550.178000",
          "145550.181000",
          "145550.184000",
          "145550.187000",
          "145550.190000",
          "145550.192000",
          "145550.195000",
          "145550.198000",
          "145550.201000",
          "145550.204000",
          "145550.207000",
          "145550.210000",
          "145550.213000",
          "145550.216000",
          "145550.219000",
          "145550.222000",
          "145550.225000",
          "145550.228000",
          "145550.231000",
          "145550.234000",
          "145610.152000",
          "145610.155000",
          "145610.158000",
          "145610.161000",
          "145610.164000",
          "145610.167000",
          "145610.170000",
          "145610.173000",
          "145610.176000",
          "145610.179000",
          "145610.182000",
          "145610.185000",
          "145610.188000",
          "145610.191000",
          "145610.194000",
          "145610.197000",
          "145610.200000",
          "145610.203000",
          "145610.206000",
          "145610.208000",
          "145610.211000",
          "145610.214000",
          "145610.217000",
          "145610.220000",
          "145610.223000",
          "145610.226000",
          "145610.229000",
          "145630.152000",
          "145630.155000",
          "145630.158000",
          "145630.161000",
          "145630.164000",
          "145630.167000",
          "145630.170000",
          "145630.173000",
          "145630.176000",
          "145630.179000",
          "145630.182000",
          "145630.185000",
          "145630.188000",
          "145630.191000",
          "145630.194000",
          "145630.197000",
          "145630.200000",
          "145630.203000",
          "145630.205000",
          "145630.208000",
          "145634.468000",
          "145634.472000",
          "145634.475000",
          "145634.478000",
          "145634.481000"
        ],
        "InstanceNumber": [
          1,
          2,
          3,
          4,
          5,
          6,
          7,
          8,
          9,
          10,
          11,
          12,
          13,
          14,
          15,
          16,
          17,
          18,
          19,
          20,
          21,
          22,
          23,
          24,
          25,
          26,
          27,
          28,
          29,
          30,
          31,
          32,
          33,
          34,
          35,
          36,
          37,
          38,
          39,
          40,
          41,
          42,
          43,
          44,
          45,
          46,
          47,
          48,
          49,
          50,
          51,
          52,
          53,
          54,
          55,
          56,
          57,
          58,
          59,
          60,
          61,
          62,
          63,
          64,
          65,
          66,
          67,
          68,
          69,
          70,
          71,
          72,
          73,
          74,
          75,
          76,
          77,
          78,
          79,
          80,
          81,
          82,
          83,
          84,
          85,
          86,
          87,
          88,
          89,
          90,
          91,
          92,
          93,
          94,
          95,
          96,
          97,
          98,
          99,
          100,
          101,
          102,
          103,
          104,
          105,
          106,
          107,
          108,
          109,
          110,
          111,
          112,
          113,
          114,
          115,
          116,
          117,
          118,
          119,
          120,
          121,
          122,
          123,
          124,
          125,
          126,
          127,
          128,
          129,
          130,
          131,
          132,
          133,
          134,
          135,
          136,
          137,
          138,
          139,
          140,
          141,
          142,
          143,
          144,
          145,
          146,
          147,
          148,
          149,
          150,
          151,
          152,
          153,
          154,
          155,
          156,
          157,
          158,
          159,
          160,
          161,
          162,
          163,
          164,
          165,
          166,
          167,
          168,
          169,
          170,
          171,
          172,
          173,
          174,
          175,
          176,
          177,
          178,
          179,
          180,
          181,
          182,
          183,
          184,
          185,
          186,
          187,
          188,
          189,
          190,
          191,
          192
        ],
        "LargestImagePixelValue": [
          32685,
          31545,
          31179,
          30875,
          30736,
          30627,
          30890,
          30354,
          30409,
          30600,
          30819,
          30362,
          30529,
          30201,
          30908,
          30309,
          30442,
          30517,
          30581,
          30574,
          30401,
          30274,
          30296,
          30496,
          30029,
          30294,
          30019,
          30243,
          30256,
          30049,
          30988,
          30489,
          30406,
          30574,
          29751,
          30379,
          31317,
          30084,
          29972,
          29908,
          30251,
          31209,
          30746,
          31267,
          32058,
          31262,
          30770,
          30585,
          30395,
          29921,
          30210,
          29679,
          29892,
          30021,
          30551,
          32446,
          29987,
          30262,
          29232,
          29921,
          29095,
          29339,
          29996,
          29625,
          29989,
          29227,
          29891,
          28988,
          30217,
          28998,
          30302,
          29300,
          29613,
          32510,
          29974,
          29458,
          29914,
          29532,
