{
  "AcquisitionMatrixPE": 104,
  "AcquisitionNumber": 1,
  "AcquisitionTime": "13:31:7.462500",
  "BandwidthPerPixelPhaseEncode": 16.578,
  "BaseResolution": 104,
  "BodyPartExamined": "BRAIN",
  "ConsistencyInfo": "N4_VE11C_LATEST_20160120",
  "ConversionSoftware": "dcm2niix",
  "ConversionSoftwareVersion": "v1.0.20190902",
  "DerivedVendorReportedEchoSpacing": 0.000580009,
  "DeviceSerialNumber": "166018",
  "DwellTime": 2.1e-06,
  "EchoTime": 0.037,
  "EchoTrainLength": 104,
  "EffectiveEchoSpacing": 0.000580009,
  "FlipAngle": 68,
  "ImageComments": "Unaliased_MB6_PE3_LB",
  "ImageOrientationPatientDICOM": [0.999816, -0.0181907, 0.00610851, 0.0188483, 0.990694, -0.134799],
  "ImageType": [
    "ORIGINAL",
    "PRIMARY",
    "M",
    "MB",
    "ND",
    "MOSAIC"
],
  "ImagingFrequency": 123.191,
  "InPlanePhaseEncodingDirectionDICOM": "COL",
  "InstitutionAddress": "Washington_Place_6_NYC_NYC_US_10003",
  "InstitutionName": "NYU_Center_for_Brain_Imaging",
  "InstitutionalDepartmentName": "Department",
  "MRAcquisitionType": "2D",
  "MagneticFieldStrength": 3,
  "Manufacturer": "Siemens",
  "ManufacturersModelName": "Prisma",
  "Modality": "MR",
  "MultibandAccelerationFactor": 6,
  "PartialFourier": 1,
  "PatientPosition": "HFS",
  "PercentPhaseFOV": 100,
  "PhaseEncodingDirection": "j",
  "PhaseEncodingSteps": 104,
  "PhaseResolution": 1,
  "PixelBandwidth": 2290,
  "ProcedureStepDescription": "Investigators_Winawer",
  "ProtocolName": "cmrr_mbepi_s6_2mm_66sl_PA_task-prf",
  "PulseSequenceDetails": "%CustomerSeq%_cmrr_mbep2d_bold",
  "ReceiveCoilActiveElements": "HC1-7",
  "ReceiveCoilName": "HeadNeck_64",
  "ReconMatrixPE": 104,
  "RepetitionTime": 1,
  "SAR": 0.0810484,
  "ScanOptions": "FS",
  "ScanningSequence": "EP",
  "SequenceName": "epfid2d1_104",
  "SequenceVariant": "SK_SS",
  "SeriesDescription": "cmrr_mbepi_s6_2mm_66sl_PA_task-prf",
  "SeriesNumber": 14,
  "ShimSetting": [261, -12629, -8429, 370, 4, -107, 39, 11],
  "SliceThickness": 2,
  "SliceTiming": [0, 0.5325, 0.0875, 0.6225, 0.1775, 0.7125, 0.2675, 0.8, 0.355, 0.89, 0.445, 0, 0.5325, 0.0875, 0.6225, 0.1775, 0.7125, 0.2675, 0.8, 0.355, 0.89, 0.445, 0, 0.5325, 0.0875, 0.6225, 0.1775, 0.7125, 0.2675, 0.8, 0.355, 0.89, 0.445, 0, 0.5325, 0.0875, 0.6225, 0.1775, 0.7125, 0.2675, 0.8, 0.355, 0.89, 0.445, 0, 0.5325, 0.0875, 0.6225, 0.1775, 0.7125, 0.2675, 0.8, 0.355, 0.89, 0.445, 0, 0.5325, 0.0875, 0.6225, 0.1775, 0.7125, 0.2675, 0.8, 0.355, 0.89, 0.445],
  "SoftwareVersions": "syngo_MR_E11",
  "SpacingBetweenSlices": 2,
  "StationName": "AWP166018",
  "TaskName": "prf",
  "TotalReadoutTime": 0.0597409,
  "TxRefAmp": 237.001,
  "WipMemBlock": "95bbb8a7-0e05-47ef-8871-1135d58a0eb7||Sequence: R016 ve11c/master r/8780670; Nov 27 2017 15:05:12 by eja",
  "dcmmeta_affine": [
    [-1.9996317625045776, 0.037696659564971924, 0.007199128624051809, 108.37948608398438],
    [0.036381449550390244, 1.9813872575759888, -0.26977935433387756, -85.99949645996094],
    [0.012217020615935326, 0.26959872245788574, 1.9817081689834595, -54.79983901977539],
    [0.0, 0.0, 0.0, 1.0]
],
  "dcmmeta_reorient_transform": [
    [0.0, -1.0, 0.0, 103.0],
    [1.0, 0.0, 0.0, 0.0],
    [0.0, 0.0, 1.0, 0.0],
    [0.0, 0.0, 0.0, 1.0]
],
  "dcmmeta_shape": [104, 104, 66, 192],
  "dcmmeta_slice_dim": 2,
  "dcmmeta_version": 0.6,
  "global": {
    "const": {
      "AccessionNumber": "juikbecn",
      "AcquisitionMatrix": [104, 0, 0, 104],
      "AngioFlag": "N",
      "BitsAllocated": 16,
      "BitsStored": 16,
      "BodyPartExamined": "BRAIN",
      "Columns": 936,
      "EchoNumbers": 1,
      "EchoTime": 37.0,
      "EchoTrainLength": 104,
      "FlipAngle": 68.0,
      "HighBit": 15,
      "ImageOrientationPatient": [0.99981587486344, -0.0181907249106, 0.0061085103163, 0.01884832904788, 0.99069363302343, -0.1347993545198],
      "ImagePositionPatient": [-959.79086137635, -927.20581243245, 80.039610185435],
      "ImageType": [
        "ORIGINAL",
        "PRIMARY",
        "M",
        "MB",
        "ND",
        "MOSAIC"
],
      "ImagedNucleus": "1H",
      "ImagingFrequency": 123.190777,
      "InPlanePhaseEncodingDirection": "COL",
      "MRAcquisitionType": "2D",
      "MagneticFieldStrength": 3.0,
      "Manufacturer": "SIEMENS",
      "ManufacturerModelName": "Prisma",
      "Modality": "MR",
      "NumberOfAverages": 1.0,
      "NumberOfPhaseEncodingSteps": 104,
      "PercentPhaseFieldOfView": 100.0,
      "PercentSampling": 100.0,
      "PerformedProcedureStepStartTime": "130740.727000",
      "PhotometricInterpretation": "MONOCHROME2",
      "PixelBandwidth": 2290.0,
      "PixelRepresentation": 0,
      "PixelSpacing": [2.0, 2.0],
      "ProtocolName": "cmrr_mbepi_s6_2mm_66sl_PA_task-prf",
      "RepetitionTime": 1000.0,
      "Rows": 936,
      "SAR": 0.08104843520262,
      "SamplesPerPixel": 1,
      "ScanOptions": "FS",
      "ScanningSequence": "EP",
      "SequenceName": "epfid2d1_104",
      "SequenceVariant": [
        "SK",
        "SS"
],
      "SeriesDescription": "cmrr_mbepi_s6_2mm_66sl_PA_task-prf",
      "SeriesNumber": 14,
      "SeriesTime": "133231.885000",
      "SliceLocation": -42.308082128694,
      "SliceThickness": 2.0,
      "SmallestImagePixelValue": 0,
      "SoftwareVersions": "syngo MR E11",
      "SpacingBetweenSlices": 2.0000000027933,
      "SpecificCharacterSet": "ISO_IR 100",
      "StudyID": "2",
      "StudyTime": "130740.671000",
      "TransmitCoilName": "Body",
      "VariableFlipAngleFlag": "N",
      "WindowCenterWidthExplanation": "Algo1",
      "dBdt": 0.0},
    "slices": {}
  },
  "time": {
    "samples": {
      "AcquisitionNumber": [1, 2, 3, 4, 5, 6, 7, 8, 9, 10, 11, 12, 13, 14, 15, 16, 17, 18, 19, 20, 21, 22, 23, 24, 25, 26, 27, 28, 29, 30, 31, 32, 33, 34, 35, 36, 37, 38, 39, 40, 41, 42, 43, 44, 45, 46, 47, 48, 49, 50, 51, 52, 53, 54, 55, 56, 57, 58, 59, 60, 61, 62, 63, 64, 65, 66, 67, 68, 69, 70, 71, 72, 73, 74, 75, 76, 77, 78, 79, 80, 81, 82, 83, 84, 85, 86, 87, 88, 89, 90, 91, 92, 93, 94, 95, 96, 97, 98, 99, 100, 101, 102, 103, 104, 105, 106, 107, 108, 109, 110, 111, 112, 113, 114, 115, 116, 117, 118, 119, 120, 121, 122, 123, 124, 125, 126, 127, 128, 129, 130, 131, 132, 133, 134, 135, 136, 137, 138, 139, 140, 141, 142, 143, 144, 145, 146, 147, 148, 149, 150, 151, 152, 153, 154, 155, 156, 157, 158, 159, 160, 161, 162, 163, 164, 165, 166, 167, 168, 169, 170, 171, 172, 173, 174, 175, 176, 177, 178, 179, 180, 181, 182, 183, 184, 185, 186, 187, 188, 189, 190, 191, 192],
      "AcquisitionTime": ["133107.462500", "133108.462500", "133109.462500", "133110.462500", "133111.462500", "133112.462500", "133113.462500", "133114.462500", "133115.462500", "133116.462500", "133117.462500", "133118.462500", "133119.462500", "133120.462500", "133121.462500", "133122.462500", "133123.462500", "133124.462500", "133125.462500", "133126.462500", "133127.462500", "133128.462500", "133129.462500", "133130.462500", "133131.462500", "133132.462500", "133133.462500", "133134.462500", "133135.462500", "133136.462500", "133137.462500", "133138.462500", "133139.462500", "133140.462500", "133141.462500", "133142.462500", "133143.462500", "133144.462500", "133145.462500", "133146.462500", "133147.462500", "133148.462500", "133149.462500", "133150.462500", "133151.462500", "133152.462500", "133153.462500", "133154.462500", "133155.462500", "133156.462500", "133157.462500", "133158.462500", "133159.462500", "133200.462500", "133201.462500", "133202.462500", "133203.462500", "133204.462500", "133205.462500", "133206.462500", "133207.462500", "133208.462500", "133209.462500", "133210.462500", "133211.462500", "133212.462500", "133213.462500", "133214.462500", "133215.462500", "133216.462500", "133217.462500", "133218.462500", "133219.462500", "133220.462500", "133221.462500", "133222.462500", "133223.462500", "133224.462500", "133225.462500", "133226.462500", "133227.462500", "133228.462500", "133229.462500", "133230.462500", "133231.462500", "133232.462500", "133233.462500", "133234.462500", "133235.462500", "133236.462500", "133237.462500", "133238.462500", "133239.462500", "133240.462500", "133241.462500", "133242.462500", "133243.462500", "133244.462500", "133245.462500", "133246.462500", "133247.462500", "133248.462500", "133249.462500", "133250.462500", "133251.462500", "133252.462500", "133253.462500", "133254.462500", "133255.462500", "133256.462500", "133257.462500", "133258.462500", "133259.462500", "133300.462500", "133301.462500", "133302.462500", "133303.462500", "133304.462500", "133305.462500", "133306.462500", "133307.462500", "133308.462500", "133309.462500", "133310.462500", "133311.462500", "133312.462500", "133313.462500", "133314.462500", "133315.462500", "133316.462500", "133317.462500", "133318.462500", "133319.462500", "133320.462500", "133321.462500", "133322.462500", "133323.462500", "133324.462500", "133325.462500", "133326.462500", "133327.462500", "133328.462500", "133329.462500", "133330.462500", "133331.462500", "133332.462500", "133333.462500", "133334.462500", "133335.462500", "133336.462500", "133337.462500", "133338.462500", "133339.462500", "133340.462500", "133341.462500", "133342.462500", "133343.462500", "133344.462500", "133345.462500", "133346.462500", "133347.462500", "133348.462500", "133349.462500", "133350.462500", "133351.462500", "133352.462500", "133353.462500", "133354.462500", "133355.462500", "133356.462500", "133357.462500", "133358.462500", "133359.462500", "133400.462500", "133401.462500", "133402.462500", "133403.462500", "133404.462500", "133405.462500", "133406.462500", "133407.462500", "133408.462500", "133409.462500", "133410.462500", "133411.462500", "133412.462500", "133413.462500", "133414.462500", "133415.462500", "133416.462500", "133417.462500", "133418.462500"],
      "ContentTime": ["133231.888000", "133231.891000", "133231.894000", "133231.897000", "133231.900000", "133231.903000", "133231.906000", "133231.915000", "133231.918000", "133231.921000", "133231.923000", "133231.927000", "133231.929000", "133231.932000", "133231.936000", "133231.938000", "133231.941000", "133231.944000", "133231.947000", "133231.950000", "133231.953000", "133231.956000", "133231.959000", "133231.962000", "133231.965000", "133231.968000", "133231.975000", "133231.978000", "133231.981000", "133231.983000", "133231.986000", "133231.989000", "133231.992000", "133231.995000", "133231.998000", "133232.002000", "133232.005000", "133232.008000", "133232.011000", "133251.860000", "133251.863000", "133251.866000", "133251.869000", "133251.872000", "133251.875000", "133251.878000", "133251.881000", "133251.884000", "133251.886000", "133251.889000", "133251.892000", "133251.895000", "133251.898000", "133251.901000", "133251.904000", "133251.907000", "133251.910000", "133251.913000", "133251.916000", "133251.919000", "133251.922000", "133251.925000", "133251.928000", "133251.931000", "133251.934000", "133251.937000", "133251.940000", "133311.860000", "133311.871000", "133311.874000", "133311.877000", "133311.880000", "133311.883000", "133311.886000", "133311.889000", "133311.892000", "133311.895000", "133311.902000", "133311.905000", "133311.908000", "133311.911000", "133311.914000", "133311.917000", "133311.920000", "133311.923000", "133311.925000", "133311.929000", "133311.931000", "133311.934000", "133311.937000", "133311.940000", "133311.943000", "133311.946000", "133311.949000", "133311.952000", "133331.860000", "133331.863000", "133331.866000", "133331.869000", "133331.872000", "133331.875000", "133331.878000", "133331.881000", "133331.884000", "133331.887000", "133331.890000", "133331.893000", "133331.896000", "133331.899000", "133331.902000", "133331.905000", "133331.925000", "133331.928000", "133331.931000", "133331.934000", "133331.937000", "133331.940000", "133331.943000", "133331.946000", "133331.948000", "133331.951000", "133331.954000", "133331.957000", "133351.860000", "133351.863000", "133351.866000", "133351.869000", "133351.872000", "133351.875000", "133351.878000", "133351.881000", "133351.884000", "133351.887000", "133351.890000", "133351.892000", "133351.895000", "133351.898000", "133351.901000", "133351.904000", "133351.907000", "133351.910000", "133351.913000", "133351.916000", "133351.919000", "133351.922000", "133351.925000", "133351.928000", "133351.931000", "133351.934000", "133351.937000", "133351.939000", "133351.942000", "133411.860000", "133411.863000", "133411.866000", "133411.869000", "133411.872000", "133411.875000", "133411.878000", "133411.881000", "133411.884000", "133411.887000", "133411.890000", "133411.893000", "133411.896000", "133411.898000", "133411.901000", "133411.904000", "133411.907000", "133411.910000", "133411.913000", "133411.916000", "133411.919000", "133411.922000", "133411.925000", "133411.928000", "133411.931000", "133411.934000", "133411.937000", "133411.940000", "133420.270000", "133420.273000", "133420.276000", "133420.279000", "133420.290000", "133420.293000", "133420.296000", "133420.299000", "133420.302000", "133420.305000", "133420.308000", "133420.311000"],
      "InstanceCreationTime": ["133231.888000", "133231.891000", "133231.894000", "133231.897000", "133231.900000", "133231.903000", "133231.906000", "133231.915000", "133231.918000", "133231.921000", "133231.923000", "133231.927000", "133231.929000", "133231.932000", "133231.936000", "133231.938000", "133231.941000", "133231.944000", "133231.947000", "133231.950000", "133231.953000", "133231.956000", "133231.959000", "133231.962000", "133231.965000", "133231.968000", "133231.975000", "133231.978000", "133231.981000", "133231.983000", "133231.986000", "133231.989000", "133231.992000", "133231.995000", "133231.998000", "133232.002000", "133232.005000", "133232.008000", "133232.011000", "133251.860000", "133251.863000", "133251.866000", "133251.869000", "133251.872000", "133251.875000", "133251.878000", "133251.881000", "133251.884000", "133251.886000", "133251.889000", "133251.892000", "133251.895000", "133251.898000", "133251.901000", "133251.904000", "133251.907000", "133251.910000", "133251.913000", "133251.916000", "133251.919000", "133251.922000", "133251.925000", "133251.928000", "133251.931000", "133251.934000", "133251.937000", "133251.940000", "133311.860000", "133311.871000", "133311.874000", "133311.877000", "133311.880000", "133311.883000", "133311.886000", "133311.889000", "133311.892000", "133311.895000", "133311.902000", "133311.905000", "133311.908000", "133311.911000", "133311.914000", "133311.917000", "133311.920000", "133311.923000", "133311.925000", "133311.929000", "133311.931000", "133311.934000", "133311.937000", "133311.940000", "133311.943000", "133311.946000", "133311.949000", "133311.952000", "133331.860000", "133331.863000", "133331.866000", "133331.869000", "133331.872000", "133331.875000", "133331.878000", "133331.881000", "133331.884000", "133331.887000", "133331.890000", "133331.893000", "133331.896000", "133331.899000", "133331.902000", "133331.905000", "133331.925000", "133331.928000", "133331.931000", "133331.934000", "133331.937000", "133331.940000", "133331.943000", "133331.946000", "133331.948000", "133331.951000", "133331.954000", "133331.957000", "133351.860000", "133351.863000", "133351.866000", "133351.869000", "133351.872000", "133351.875000", "133351.878000", "133351.881000", "133351.884000", "133351.887000", "133351.890000", "133351.892000", "133351.895000", "133351.898000", "133351.901000", "133351.904000", "133351.907000", "133351.910000", "133351.913000", "133351.916000", "133351.919000", "133351.922000", "133351.925000", "133351.928000", "133351.931000", "133351.934000", "133351.937000", "133351.939000", "133351.942000", "133411.860000", "133411.863000", "133411.866000", "133411.869000", "133411.872000", "133411.875000", "133411.878000", "133411.881000", "133411.884000", "133411.887000", "133411.890000", "133411.893000", "133411.896000", "133411.898000", "133411.901000", "133411.904000", "133411.907000", "133411.910000", "133411.913000", "133411.916000", "133411.919000", "133411.922000", "133411.925000", "133411.928000", "133411.931000", "133411.934000", "133411.937000", "133411.940000", "133420.270000", "133420.273000", "133420.276000", "133420.279000", "133420.290000", "133420.293000", "133420.296000", "133420.299000", "133420.302000", "133420.305000", "133420.308000", "133420.311000"],
      "InstanceNumber": [1, 2, 3, 4, 5, 6, 7, 8, 9, 10, 11, 12, 13, 14, 15, 16, 17, 18, 19, 20, 21, 22, 23, 24, 25, 26, 27, 28, 29, 30, 31, 32, 33, 34, 35, 36, 37, 38, 39, 40, 41, 42, 43, 44, 45, 46, 47, 48, 49, 50, 51, 52, 53, 54, 55, 56, 57, 58, 59, 60, 61, 62, 63, 64, 65, 66, 67, 68, 69, 70, 71, 72, 73, 74, 75, 76, 77, 78, 79, 80, 81, 82, 83, 84, 85, 86, 87, 88, 89, 90, 91, 92, 93, 94, 95, 96, 97, 98, 99, 100, 101, 102, 103, 104, 105, 106, 107, 108, 109, 110, 111, 112, 113, 114, 115, 116, 117, 118, 119, 120, 121, 122, 123, 124, 125, 126, 127, 128, 129, 130, 131, 132, 133, 134, 135, 136, 137, 138, 139, 140, 141, 142, 143, 144, 145, 146, 147, 148, 149, 150, 151, 152, 153, 154, 155, 156, 157, 158, 159, 160, 161, 162, 163, 164, 165, 166, 167, 168, 169, 170, 171, 172, 173, 174, 175, 176, 177, 178, 179, 180, 181, 182, 183, 184, 185, 186, 187, 188, 189, 190, 191, 192],
      "LargestImagePixelValue": [38818, 37989, 37378, 36811, 37083, 37073, 36445, 37047, 37305, 37405, 36874, 36790, 37115, 36636, 36715, 36681, 36643, 36769, 36598, 36393, 36948, 36607, 36387, 36075, 37119, 37106, 36356, 36929, 36957, 36890, 36596, 36793, 36546, 37256, 37725, 36779, 36966, 37081, 36600, 36655, 37011, 36764, 36759, 36689, 36307, 37872, 38069, 37668, 37373, 37243, 36874, 37791, 37488, 37514, 36855, 37358, 36968, 37193, 37602, 37166, 37080, 37365, 37076, 36534, 37508, 37865, 37423, 37581, 37753, 37393, 37383, 37014, 37623, 37760, 37022, 37238, 37713, 36797, 37599, 37665, 37455, 37777, 36592, 36880, 37436, 37115, 37815, 38147, 36611, 37749, 37472, 36888, 37641, 37216, 36712, 37204, 36384, 37094, 37091, 36612, 36856, 36752, 36779, 37346, 36942, 36294, 36413, 36107, 36591, 36315, 36767, 36612, 36796, 36094, 36982, 36659, 36499, 36401, 36672, 36365, 36642, 36409, 37036, 37376, 36758, 37141, 36635, 36989, 36669, 36731, 37259, 37789, 37188, 36316, 37157, 36709, 36533, 36806, 36803, 36480, 36421, 37226, 36599, 36470, 36351, 37009, 36691, 36735, 36795, 36711, 36438, 37069, 36702, 36967, 36789, 36600, 36382, 36733, 36403, 36896, 36850, 36803, 36124, 36634, 36602, 37925, 37797, 36642, 37435, 37281, 37114, 37033, 37196, 37046, 37437, 37217, 37568, 37401, 37650, 37696, 37405, 37334, 37237, 36420, 37653, 36840, 36707, 37202, 36903, 37036, 37293, 37062],
      "WindowCenter": [9924.0, 9889.0, 9863.0, 9842.0, 9830.0, 9822.0, 9809.0, 9819.0, 9832.0, 9825.0, 9799.0, 9797.0, 9800.0, 9798.0, 9798.0, 9798.0, 9791.0, 9788.0, 9773.0, 9765.0, 9777.0, 9781.0, 9783.0, 9793.0, 9811.0, 9825.0, 9809.0, 9808.0, 9806.0, 9799.0, 9792.0, 9810.0, 9817.0, 9844.0, 9855.0, 9831.0, 9821.0, 9820.0, 9802.0, 9806.0, 9811.0, 9806.0, 9813.0, 9820.0, 9827.0, 9849.0, 9852.0, 9841.0, 9833.0, 9819.0, 9819.0, 9829.0, 9824.0, 9816.0, 9804.0, 9810.0, 9817.0, 9818.0, 9822.0, 9811.0, 9824.0, 9832.0, 9834.0, 9831.0, 9842.0, 9840.0, 9840.0, 9840.0, 9853.0, 9849.0, 9841.0, 9835.0, 9832.0, 9829.0, 9812.0, 9825.0, 9844.0, 9847.0, 9859.0, 9848.0, 9841.0, 9853.0, 9826.0, 9828.0, 9832.0, 9827.0, 9840.0, 9851.0, 9840.0, 9855.0, 9856.0, 9832.0, 9838.0, 9834.0, 9822.0, 9820.0, 9810.0, 9825.0, 9825.0, 9815.0, 9813.0, 9804.0, 9790.0, 9799.0, 9795.0, 9786.0, 9784.0, 9789.0, 9797.0, 9808.0, 9835.0, 9832.0, 9831.0, 9813.0, 9811.0, 9805.0, 9804.0, 9804.0, 9820.0, 9823.0, 9828.0, 9815.0, 9818.0, 9814.0, 9788.0, 9792.0, 9782.0, 9799.0, 9801.0, 9803.0, 9819.0, 9828.0, 9818.0, 9802.0, 9811.0, 9803.0, 9797.0, 9796.0, 9801.0, 9798.0, 9797.0, 9802.0, 9797.0, 9790.0, 9788.0, 9799.0, 9795.0, 9810.0, 9812.0, 9818.0, 9814.0, 9826.0, 9820.0, 9823.0, 9814.0, 9820.0, 9823.0, 9849.0, 9854.0, 9860.0, 9845.0, 9830.0, 9811.0, 9813.0, 9828.0, 9844.0, 9836.0, 9812.0, 9812.0, 9799.0, 9800.0, 9806.0, 9806.0, 9807.0, 9813.0, 9814.0, 9814.0, 9820.0, 9828.0, 9835.0, 9837.0, 9831.0, 9824.0, 9808.0, 9827.0, 9817.0, 9805.0, 9801.0, 9795.0, 9808.0, 9808.0, 9802.0],
      "WindowWidth": [21309.0, 21203.0, 21133.0, 21082.0, 21051.0, 21031.0, 21005.0, 21019.0, 21047.0, 21032.0, 20976.0, 20966.0, 20974.0, 20973.0, 20977.0, 20976.0, 20961.0, 20948.0, 20914.0, 20894.0, 20918.0, 20932.0, 20937.0, 20960.0, 20998.0, 21030.0, 20999.0, 20994.0, 20990.0, 20975.0, 20962.0, 20997.0, 21021.0, 21077.0, 21099.0, 21052.0, 21026.0, 21023.0, 20990.0, 20992.0, 21001.0, 20993.0, 21008.0, 21025.0, 21045.0, 21086.0, 21091.0, 21065.0, 21046.0, 21019.0, 21016.0, 21035.0, 21027.0, 21008.0, 20985.0, 20997.0, 21015.0, 21016.0, 21021.0, 21003.0, 21030.0, 21051.0, 21057.0, 21054.0, 21073.0, 21072.0, 21072.0, 21071.0, 21098.0, 21091.0, 21071.0, 21058.0, 21048.0, 21037.0, 21006.0, 21031.0, 21075.0, 21092.0, 21112.0, 21084.0, 21070.0, 21094.0, 21044.0, 21043.0, 21051.0, 21043.0, 21072.0, 21092.0, 21077.0, 21104.0, 21106.0, 21054.0, 21059.0, 21055.0, 21029.0, 21021.0, 21002.0, 21028.0, 21031.0, 21014.0, 21004.0, 20982.0, 20949.0, 20969.0, 20962.0, 20945.0, 20942.0, 20951.0, 20966.0, 21000.0, 21058.0, 21053.0, 21051.0, 21014.0, 21002.0, 20988.0, 20983.0, 20985.0, 21021.0, 21028.0, 21037.0, 21010.0, 21011.0, 21001.0, 20944.0, 20950.0, 20933.0, 20965.0, 20974.0, 20982.0, 21015.0, 21031.0, 21014.0, 20984.0, 20997.0, 20982.0, 20969.0, 20965.0, 20976.0, 20971.0, 20967.0, 20974.0, 20966.0, 20952.0, 20947.0, 20967.0, 20963.0, 20996.0, 21001.0, 21016.0, 21010.0, 21031.0, 21020.0, 21026.0, 21010.0, 21022.0, 21033.0, 21091.0, 21108.0, 21116.0, 21083.0, 21047.0, 21005.0, 21007.0, 21040.0, 21072.0, 21052.0, 20998.0, 20993.0, 20966.0, 20967.0, 20980.0, 20982.0, 20984.0, 20998.0, 21004.0, 21003.0, 21016.0, 21033.0, 21047.0, 21054.0, 21044.0, 21029.0, 20996.0, 21028.0, 21014.0, 20987.0, 20972.0, 20961.0, 20988.0, 20991.0, 20975.0]
    },
    "slices": {}
  },
  "NumberOfVolumes": 192
}