{
  "AcquisitionMatrixPE": 104,
  "AcquisitionNumber": 1,
  "AcquisitionTime": "13:20:18.107500",
  "BandwidthPerPixelPhaseEncode": 16.578,
  "BaseResolution": 104,
  "BodyPartExamined": "BRAIN",
  "ConsistencyInfo": "N4_VE11C_LATEST_20160120",
  "ConversionSoftware": "dcm2niix",
  "ConversionSoftwareVersion": "v1.0.20190902",
  "DerivedVendorReportedEchoSpacing": 0.000580009,
  "DeviceSerialNumber": "166018",
  "DwellTime": 2.1e-06,
  "EchoTime": 0.037,
  "EchoTrainLength": 104,
  "EffectiveEchoSpacing": 0.000580009,
  "FlipAngle": 68,
  "ImageComments": "Unaliased_MB6_PE3_LB",
  "ImageOrientationPatientDICOM": [0.999816, -0.0181907, 0.00610851, 0.0188483, 0.990694, -0.134799],
  "ImageType": [
    "ORIGINAL",
    "PRIMARY",
    "M",
    "MB",
    "ND",
    "MOSAIC"
],
  "ImagingFrequency": 123.191,
  "InPlanePhaseEncodingDirectionDICOM": "COL",
  "InstitutionAddress": "Washington_Place_6_NYC_NYC_US_10003",
  "InstitutionName": "NYU_Center_for_Brain_Imaging",
  "InstitutionalDepartmentName": "Department",
  "MRAcquisitionType": "2D",
  "MagneticFieldStrength": 3,
  "Manufacturer": "Siemens",
  "ManufacturersModelName": "Prisma",
  "Modality": "MR",
  "MultibandAccelerationFactor": 6,
  "PartialFourier": 1,
  "PatientPosition": "HFS",
  "PercentPhaseFOV": 100,
  "PhaseEncodingDirection": "j",
  "PhaseEncodingSteps": 104,
  "PhaseResolution": 1,
  "PixelBandwidth": 2290,
  "ProcedureStepDescription": "Investigators_Winawer",
  "ProtocolName": "cmrr_mbepi_s6_2mm_66sl_PA_task-prf",
  "PulseSequenceDetails": "%CustomerSeq%_cmrr_mbep2d_bold",
  "ReceiveCoilActiveElements": "HC1-7",
  "ReceiveCoilName": "HeadNeck_64",
  "ReconMatrixPE": 104,
  "RepetitionTime": 1,
  "SAR": 0.0810484,
  "ScanOptions": "FS",
  "ScanningSequence": "EP",
  "SequenceName": "epfid2d1_104",
  "SequenceVariant": "SK_SS",
  "SeriesDescription": "cmrr_mbepi_s6_2mm_66sl_PA_task-prf",
  "SeriesNumber": 8,
  "ShimSetting": [261, -12629, -8429, 370, 4, -107, 39, 11],
  "SliceThickness": 2,
  "SliceTiming": [0, 0.535, 0.09, 0.6225, 0.1775, 0.7125, 0.2675, 0.8025, 0.3575, 0.89, 0.445, 0, 0.535, 0.09, 0.6225, 0.1775, 0.7125, 0.2675, 0.8025, 0.3575, 0.89, 0.445, 0, 0.535, 0.09, 0.6225, 0.1775, 0.7125, 0.2675, 0.8025, 0.3575, 0.89, 0.445, 0, 0.535, 0.09, 0.6225, 0.1775, 0.7125, 0.2675, 0.8025, 0.3575, 0.89, 0.445, 0, 0.535, 0.09, 0.6225, 0.1775, 0.7125, 0.2675, 0.8025, 0.3575, 0.89, 0.445, 0, 0.535, 0.09, 0.6225, 0.1775, 0.7125, 0.2675, 0.8025, 0.3575, 0.89, 0.445],
  "SoftwareVersions": "syngo_MR_E11",
  "SpacingBetweenSlices": 2,
  "StationName": "AWP166018",
  "TaskName": "prf",
  "TotalReadoutTime": 0.0597409,
  "TxRefAmp": 237.001,
  "WipMemBlock": "95bbb8a7-0e05-47ef-8871-1135d58a0eb7||Sequence: R016 ve11c/master r/8780670; Nov 27 2017 15:05:12 by eja",
  "dcmmeta_affine": [
    [-1.9996317625045776, 0.037696659564971924, 0.007199128624051809, 108.37948608398438],
    [0.036381449550390244, 1.9813872575759888, -0.26977935433387756, -85.99949645996094],
    [0.012217020615935326, 0.26959872245788574, 1.9817081689834595, -54.79983901977539],
    [0.0, 0.0, 0.0, 1.0]
],
  "dcmmeta_reorient_transform": [
    [0.0, -1.0, 0.0, 103.0],
    [1.0, 0.0, 0.0, 0.0],
    [0.0, 0.0, 1.0, 0.0],
    [0.0, 0.0, 0.0, 1.0]
],
  "dcmmeta_shape": [104, 104, 66, 192],
  "dcmmeta_slice_dim": 2,
  "dcmmeta_version": 0.6,
  "global": {
    "const": {
      "AccessionNumber": "juikbecn",
      "AcquisitionMatrix": [104, 0, 0, 104],
      "AngioFlag": "N",
      "BitsAllocated": 16,
      "BitsStored": 16,
      "BodyPartExamined": "BRAIN",
      "Columns": 936,
      "EchoNumbers": 1,
      "EchoTime": 37.0,
      "EchoTrainLength": 104,
      "FlipAngle": 68.0,
      "HighBit": 15,
      "ImageOrientationPatient": [0.99981587486344, -0.0181907249106, 0.0061085103163, 0.01884832904788, 0.99069363302343, -0.1347993545198],
      "ImagePositionPatient": [-959.79086137635, -927.20581243245, 80.039610185435],
      "ImageType": [
        "ORIGINAL",
        "PRIMARY",
        "M",
        "MB",
        "ND",
        "MOSAIC"
],
      "ImagedNucleus": "1H",
      "ImagingFrequency": 123.190777,
      "InPlanePhaseEncodingDirection": "COL",
      "MRAcquisitionType": "2D",
      "MagneticFieldStrength": 3.0,
      "Manufacturer": "SIEMENS",
      "ManufacturerModelName": "Prisma",
      "Modality": "MR",
      "NumberOfAverages": 1.0,
      "NumberOfPhaseEncodingSteps": 104,
      "PercentPhaseFieldOfView": 100.0,
      "PercentSampling": 100.0,
      "PerformedProcedureStepStartTime": "130740.727000",
      "PhotometricInterpretation": "MONOCHROME2",
      "PixelBandwidth": 2290.0,
      "PixelRepresentation": 0,
      "PixelSpacing": [2.0, 2.0],
      "ProtocolName": "cmrr_mbepi_s6_2mm_66sl_PA_task-prf",
      "RepetitionTime": 1000.0,
      "Rows": 936,
      "SAR": 0.08104843520262,
      "SamplesPerPixel": 1,
      "ScanOptions": "FS",
      "ScanningSequence": "EP",
      "SequenceName": "epfid2d1_104",
      "SequenceVariant": [
        "SK",
        "SS"
],
      "SeriesDescription": "cmrr_mbepi_s6_2mm_66sl_PA_task-prf",
      "SeriesNumber": 8,
      "SeriesTime": "132111.892000",
      "SliceLocation": -42.308082128694,
      "SliceThickness": 2.0,
      "SmallestImagePixelValue": 0,
      "SoftwareVersions": "syngo MR E11",
      "SpacingBetweenSlices": 2.0000000027933,
      "SpecificCharacterSet": "ISO_IR 100",
      "StudyID": "2",
      "StudyTime": "130740.671000",
      "TransmitCoilName": "Body",
      "VariableFlipAngleFlag": "N",
      "WindowCenterWidthExplanation": "Algo1",
      "dBdt": 0.0},
    "slices": {}
  },
  "time": {
    "samples": {
      "AcquisitionNumber": [1, 2, 3, 4, 5, 6, 7, 8, 9, 10, 11, 12, 13, 14, 15, 16, 17, 18, 19, 20, 21, 22, 23, 24, 25, 26, 27, 28, 29, 30, 31, 32, 33, 34, 35, 36, 37, 38, 39, 40, 41, 42, 43, 44, 45, 46, 47, 48, 49, 50, 51, 52, 53, 54, 55, 56, 57, 58, 59, 60, 61, 62, 63, 64, 65, 66, 67, 68, 69, 70, 71, 72, 73, 74, 75, 76, 77, 78, 79, 80, 81, 82, 83, 84, 85, 86, 87, 88, 89, 90, 91, 92, 93, 94, 95, 96, 97, 98, 99, 100, 101, 102, 103, 104, 105, 106, 107, 108, 109, 110, 111, 112, 113, 114, 115, 116, 117, 118, 119, 120, 121, 122, 123, 124, 125, 126, 127, 128, 129, 130, 131, 132, 133, 134, 135, 136, 137, 138, 139, 140, 141, 142, 143, 144, 145, 146, 147, 148, 149, 150, 151, 152, 153, 154, 155, 156, 157, 158, 159, 160, 161, 162, 163, 164, 165, 166, 167, 168, 169, 170, 171, 172, 173, 174, 175, 176, 177, 178, 179, 180, 181, 182, 183, 184, 185, 186, 187, 188, 189, 190, 191, 192],
      "AcquisitionTime": ["132018.107500", "132019.107500", "132020.107500", "132021.107500", "132022.107500", "132023.107500", "132024.107500", "132025.107500", "132026.107500", "132027.107500", "132028.107500", "132029.107500", "132030.107500", "132031.107500", "132032.107500", "132033.107500", "132034.107500", "132035.107500", "132036.107500", "132037.107500", "132038.107500", "132039.107500", "132040.107500", "132041.107500", "132042.107500", "132043.107500", "132044.107500", "132045.107500", "132046.107500", "132047.107500", "132048.107500", "132049.107500", "132050.107500", "132051.107500", "132052.107500", "132053.107500", "132054.107500", "132055.107500", "132056.107500", "132057.107500", "132058.107500", "132059.107500", "132100.107500", "132101.107500", "132102.107500", "132103.107500", "132104.107500", "132105.107500", "132106.107500", "132107.107500", "132108.107500", "132109.107500", "132110.107500", "132111.107500", "132112.107500", "132113.107500", "132114.107500", "132115.107500", "132116.107500", "132117.107500", "132118.107500", "132119.107500", "132120.107500", "132121.107500", "132122.107500", "132123.107500", "132124.107500", "132125.107500", "132126.107500", "132127.107500", "132128.107500", "132129.107500", "132130.107500", "132131.107500", "132132.107500", "132133.107500", "132134.107500", "132135.107500", "132136.107500", "132137.107500", "132138.107500", "132139.107500", "132140.107500", "132141.107500", "132142.107500", "132143.107500", "132144.107500", "132145.107500", "132146.107500", "132147.107500", "132148.107500", "132149.107500", "132150.107500", "132151.107500", "132152.107500", "132153.107500", "132154.107500", "132155.107500", "132156.107500", "132157.107500", "132158.107500", "132159.107500", "132200.107500", "132201.107500", "132202.107500", "132203.107500", "132204.107500", "132205.107500", "132206.107500", "132207.107500", "132208.107500", "132209.107500", "132210.107500", "132211.107500", "132212.107500", "132213.107500", "132214.107500", "132215.107500", "132216.107500", "132217.107500", "132218.107500", "132219.107500", "132220.107500", "132221.107500", "132222.107500", "132223.107500", "132224.107500", "132225.107500", "132226.107500", "132227.107500", "132228.107500", "132229.107500", "132230.107500", "132231.107500", "132232.107500", "132233.107500", "132234.107500", "132235.107500", "132236.107500", "132237.107500", "132238.107500", "132239.107500", "132240.107500", "132241.107500", "132242.107500", "132243.107500", "132244.107500", "132245.107500", "132246.107500", "132247.107500", "132248.107500", "132249.107500", "132250.107500", "132251.107500", "132252.107500", "132253.107500", "132254.107500", "132255.107500", "132256.107500", "132257.107500", "132258.107500", "132259.107500", "132300.107500", "132301.107500", "132302.107500", "132303.107500", "132304.107500", "132305.107500", "132306.107500", "132307.107500", "132308.107500", "132309.107500", "132310.107500", "132311.107500", "132312.107500", "132313.107500", "132314.107500", "132315.107500", "132316.107500", "132317.107500", "132318.107500", "132319.107500", "132320.107500", "132321.107500", "132322.107500", "132323.107500", "132324.107500", "132325.107500", "132326.107500", "132327.107500", "132328.107500", "132329.107500"],
      "ContentTime": ["132111.895000", "132111.898000", "132111.901000", "132111.904000", "132111.907000", "132111.910000", "132131.860000", "132131.863000", "132131.866000", "132131.869000", "132131.872000", "132131.875000", "132131.878000", "132131.880000", "132131.883000", "132131.886000", "132131.892000", "132131.895000", "132131.898000", "132131.906000", "132131.909000", "132131.912000", "132131.915000", "132131.918000", "132131.921000", "132131.924000", "132131.927000", "132131.930000", "132131.933000", "132131.936000", "132131.939000", "132131.947000", "132131.950000", "132131.952000", "132151.860000", "132151.864000", "132151.867000", "132151.879000", "132151.892000", "132151.895000", "132151.899000", "132151.902000", "132151.906000", "132151.909000", "132151.913000", "132151.916000", "132151.919000", "132151.923000", "132151.926000", "132151.930000", "132151.934000", "132151.937000", "132151.941000", "132151.944000", "132151.947000", "132151.951000", "132151.954000", "132151.958000", "132151.961000", "132151.965000", "132151.978000", "132151.981000", "132211.861000", "132211.865000", "132211.868000", "132211.871000", "132211.874000", "132211.877000", "132211.880000", "132211.883000", "132211.886000", "132211.889000", "132211.892000", "132211.895000", "132211.898000", "132211.908000", "132211.911000", "132211.914000", "132211.917000", "132211.920000", "132211.923000", "132211.926000", "132211.929000", "132211.931000", "132211.934000", "132211.937000", "132211.940000", "132211.943000", "132211.946000", "132211.949000", "132231.860000", "132231.863000", "132231.866000", "132231.869000", "132231.872000", "132231.875000", "132231.877000", "132231.880000", "132231.883000", "132231.893000", "132231.896000", "132231.899000", "132231.902000", "132231.905000", "132231.908000", "132231.911000", "132231.914000", "132231.917000", "132231.919000", "132231.922000", "132231.925000", "132231.928000", "132231.931000", "132231.934000", "132231.937000", "132231.940000", "132231.943000", "132231.946000", "132231.949000", "132251.861000", "132251.864000", "132251.867000", "132251.870000", "132251.873000", "132251.876000", "132251.879000", "132251.882000", "132251.885000", "132251.888000", "132251.890000", "132251.893000", "132251.896000", "132251.899000", "132251.902000", "132251.905000", "132251.908000", "132251.911000", "132251.914000", "132251.917000", "132251.920000", "132251.923000", "132251.926000", "132251.929000", "132251.932000", "132251.935000", "132251.937000", "132251.940000", "132311.860000", "132311.872000", "132311.875000", "132311.878000", "132311.881000", "132311.888000", "132311.891000", "132311.894000", "132311.897000", "132311.900000", "132311.911000", "132311.914000", "132311.916000", "132311.919000", "132311.922000", "132311.928000", "132311.931000", "132311.934000", "132311.937000", "132311.940000", "132311.943000", "132311.946000", "132311.948000", "132311.951000", "132311.954000", "132311.957000", "132330.704000", "132330.708000", "132330.712000", "132330.715000", "132330.719000", "132330.722000", "132330.725000", "132330.728000", "132330.732000", "132330.735000", "132330.745000", "132330.748000", "132330.751000", "132330.754000", "132330.757000", "132330.760000", "132330.763000", "132330.766000", "132330.769000"],
      "InstanceCreationTime": ["132111.895000", "132111.898000", "132111.901000", "132111.904000", "132111.907000", "132111.910000", "132131.860000", "132131.863000", "132131.866000", "132131.869000", "132131.872000", "132131.875000", "132131.878000", "132131.880000", "132131.883000", "132131.886000", "132131.892000", "132131.895000", "132131.898000", "132131.906000", "132131.909000", "132131.912000", "132131.915000", "132131.918000", "132131.921000", "132131.924000", "132131.927000", "132131.930000", "132131.933000", "132131.936000", "132131.939000", "132131.947000", "132131.950000", "132131.952000", "132151.860000", "132151.864000", "132151.867000", "132151.879000", "132151.892000", "132151.895000", "132151.899000", "132151.902000", "132151.906000", "132151.909000", "132151.913000", "132151.916000", "132151.919000", "132151.923000", "132151.926000", "132151.930000", "132151.934000", "132151.937000", "132151.941000", "132151.944000", "132151.947000", "132151.951000", "132151.954000", "132151.958000", "132151.961000", "132151.965000", "132151.978000", "132151.981000", "132211.861000", "132211.865000", "132211.868000", "132211.871000", "132211.874000", "132211.877000", "132211.880000", "132211.883000", "132211.886000", "132211.889000", "132211.892000", "132211.895000", "132211.898000", "132211.908000", "132211.911000", "132211.914000", "132211.917000", "132211.920000", "132211.923000", "132211.926000", "132211.929000", "132211.931000", "132211.934000", "132211.937000", "132211.940000", "132211.943000", "132211.946000", "132211.949000", "132231.860000", "132231.863000", "132231.866000", "132231.869000", "132231.872000", "132231.875000", "132231.877000", "132231.880000", "132231.883000", "132231.893000", "132231.896000", "132231.899000", "132231.902000", "132231.905000", "132231.908000", "132231.911000", "132231.914000", "132231.917000", "132231.919000", "132231.922000", "132231.925000", "132231.928000", "132231.931000", "132231.934000", "132231.937000", "132231.940000", "132231.943000", "132231.946000", "132231.949000", "132251.861000", "132251.864000", "132251.867000", "132251.870000", "132251.873000", "132251.876000", "132251.879000", "132251.882000", "132251.885000", "132251.888000", "132251.890000", "132251.893000", "132251.896000", "132251.899000", "132251.902000", "132251.905000", "132251.908000", "132251.911000", "132251.914000", "132251.917000", "132251.920000", "132251.923000", "132251.926000", "132251.929000", "132251.932000", "132251.935000", "132251.937000", "132251.940000", "132311.860000", "132311.872000", "132311.875000", "132311.878000", "132311.881000", "132311.888000", "132311.891000", "132311.894000", "132311.897000", "132311.900000", "132311.911000", "132311.914000", "132311.916000", "132311.919000", "132311.922000", "132311.928000", "132311.931000", "132311.934000", "132311.937000", "132311.940000", "132311.943000", "132311.946000", "132311.948000", "132311.951000", "132311.954000", "132311.957000", "132330.704000", "132330.708000", "132330.712000", "132330.715000", "132330.719000", "132330.722000", "132330.725000", "132330.728000", "132330.732000", "132330.735000", "132330.745000", "132330.748000", "132330.751000", "132330.754000", "132330.757000", "132330.760000", "132330.763000", "132330.766000", "132330.769000"],
      "InstanceNumber": [1, 2, 3, 4, 5, 6, 7, 8, 9, 10, 11, 12, 13, 14, 15, 16, 17, 18, 19, 20, 21, 22, 23, 24, 25, 26, 27, 28, 29, 30, 31, 32, 33, 34, 35, 36, 37, 38, 39, 40, 41, 42, 43, 44, 45, 46, 47, 48, 49, 50, 51, 52, 53, 54, 55, 56, 57, 58, 59, 60, 61, 62, 63, 64, 65, 66, 67, 68, 69, 70, 71, 72, 73, 74, 75, 76, 77, 78, 79, 80, 81, 82, 83, 84, 85, 86, 87, 88, 89, 90, 91, 92, 93, 94, 95, 96, 97, 98, 99, 100, 101, 102, 103, 104, 105, 106, 107, 108, 109, 110, 111, 112, 113, 114, 115, 116, 117, 118, 119, 120, 121, 122, 123, 124, 125, 126, 127, 128, 129, 130, 131, 132, 133, 134, 135, 136, 137, 138, 139, 140, 141, 142, 143, 144, 145, 146, 147, 148, 149, 150, 151, 152, 153, 154, 155, 156, 157, 158, 159, 160, 161, 162, 163, 164, 165, 166, 167, 168, 169, 170, 171, 172, 173, 174, 175, 176, 177, 178, 179, 180, 181, 182, 183, 184, 185, 186, 187, 188, 189, 190, 191, 192],
      "LargestImagePixelValue": [40744, 39713, 38847, 38526, 38636, 38606, 38627, 38472, 38421, 38313, 38570, 38093, 38063, 38504, 38308, 38296, 38755, 38360, 38612, 38427, 38084, 38210, 38411, 38457, 38688, 38304, 38380, 38359, 38420, 38331, 38166, 38094, 37795, 38429, 37909, 38077, 38450, 38348, 38508, 38285, 38212, 38377, 37939, 37968, 38291, 38178, 37936, 37873, 38033, 38203, 38092, 37767, 38275, 38041, 38637, 38414, 38443, 38558, 38109, 37934, 38213, 38519, 38384, 38331, 38279, 38033, 37714, 37987, 38330, 38504, 38301, 38304, 38500, 38269, 38060, 38280, 38101, 38119, 38313, 38099, 38087, 38814, 38788, 38353, 38782, 38403, 38209, 37838, 38147, 38560, 38089, 37983, 38557, 38070, 38108, 38128, 38161, 39062, 38655, 38269, 38324, 38361, 38093, 38341, 38007, 38283, 38020, 38331, 38164, 38220, 37970, 38594, 37935, 38464, 37701, 38482, 38318, 38009, 38346, 37901, 38187, 37680, 37847, 38050, 37905, 38240, 37419, 38378, 37657, 37286, 38238, 37477, 38284, 38287, 37908, 38378, 38297, 37564, 38204, 37664, 37884, 38226, 37419, 38352, 38282, 37599, 37862, 37370, 37733, 37986, 37477, 38154, 37863, 38009, 37759, 38120, 37557, 37884, 37483, 38144, 37857, 37477, 38389, 37486, 37538, 38294, 38250, 38179, 38022, 37005, 37970, 38031, 37558, 38138, 37799, 38388, 38108, 38000, 38725, 37925, 38420, 38384, 37246, 38139, 37951, 38063, 38293, 38132, 38083, 38320, 37715, 37998],
      "WindowCenter": [9946.0, 9907.0, 9883.0, 9876.0, 9874.0, 9864.0, 9862.0, 9856.0, 9849.0, 9850.0, 9861.0, 9852.0, 9859.0, 9865.0, 9880.0, 9874.0, 9871.0, 9865.0, 9856.0, 9849.0, 9850.0, 9845.0, 9856.0, 9856.0, 9861.0, 9848.0, 9850.0, 9857.0, 9857.0, 9858.0, 9853.0, 9850.0, 9846.0, 9863.0, 9853.0, 9852.0, 9859.0, 9858.0, 9853.0, 9845.0, 9835.0, 9846.0, 9837.0, 9841.0, 9841.0, 9850.0, 9845.0, 9844.0, 9845.0, 9843.0, 9842.0, 9837.0, 9841.0, 9835.0, 9845.0, 9842.0, 9842.0, 9842.0, 9842.0, 9845.0, 9846.0, 9865.0, 9874.0, 9875.0, 9876.0, 9857.0, 9842.0, 9845.0, 9845.0, 9845.0, 9845.0, 9852.0, 9845.0, 9843.0, 9837.0, 9836.0, 9829.0, 9836.0, 9844.0, 9837.0, 9845.0, 9857.0, 9858.0, 9853.0, 9850.0, 9844.0, 9854.0, 9857.0, 9862.0, 9867.0, 9856.0, 9849.0, 9851.0, 9846.0, 9847.0, 9847.0, 9846.0, 9850.0, 9851.0, 9847.0, 9854.0, 9852.0, 9846.0, 9844.0, 9846.0, 9845.0, 9838.0, 9843.0, 9845.0, 9846.0, 9853.0, 9867.0, 9862.0, 9876.0, 9866.0, 9869.0, 9855.0, 9849.0, 9855.0, 9852.0, 9863.0, 9851.0, 9849.0, 9857.0, 9863.0, 9861.0, 9844.0, 9843.0, 9833.0, 9834.0, 9846.0, 9856.0, 9868.0, 9876.0, 9866.0, 9869.0, 9862.0, 9839.0, 9837.0, 9817.0, 9810.0, 9821.0, 9818.0, 9835.0, 9845.0, 9834.0, 9848.0, 9844.0, 9841.0, 9838.0, 9825.0, 9837.0, 9833.0, 9840.0, 9840.0, 9844.0, 9834.0, 9848.0, 9853.0, 9864.0, 9866.0, 9868.0, 9877.0, 9860.0, 9854.0, 9861.0, 9854.0, 9840.0, 9831.0, 9815.0, 9829.0, 9836.0, 9826.0, 9829.0, 9838.0, 9853.0, 9854.0, 9849.0, 9852.0, 9838.0, 9837.0, 9846.0, 9838.0, 9856.0, 9856.0, 9840.0, 9828.0, 9815.0, 9815.0, 9833.0, 9824.0, 9829.0],
      "WindowWidth": [21349.0, 21239.0, 21173.0, 21155.0, 21145.0, 21119.0, 21114.0, 21099.0, 21086.0, 21089.0, 21107.0, 21091.0, 21105.0, 21120.0, 21154.0, 21146.0, 21136.0, 21122.0, 21100.0, 21083.0, 21084.0, 21078.0, 21096.0, 21098.0, 21105.0, 21079.0, 21085.0, 21099.0, 21099.0, 21104.0, 21094.0, 21086.0, 21080.0, 21114.0, 21095.0, 21092.0, 21107.0, 21105.0, 21094.0, 21076.0, 21052.0, 21071.0, 21056.0, 21061.0, 21061.0, 21081.0, 21071.0, 21069.0, 21072.0, 21064.0, 21064.0, 21053.0, 21060.0, 21050.0, 21069.0, 21066.0, 21065.0, 21062.0, 21064.0, 21071.0, 21075.0, 21119.0, 21139.0, 21147.0, 21147.0, 21107.0, 21074.0, 21075.0, 21072.0, 21072.0, 21075.0, 21091.0, 21075.0, 21068.0, 21053.0, 21050.0, 21034.0, 21047.0, 21065.0, 21053.0, 21074.0, 21097.0, 21102.0, 21091.0, 21082.0, 21071.0, 21100.0, 21107.0, 21116.0, 21122.0, 21100.0, 21084.0, 21086.0, 21077.0, 21078.0, 21080.0, 21076.0, 21079.0, 21083.0, 21079.0, 21093.0, 21090.0, 21076.0, 21069.0, 21074.0, 21074.0, 21057.0, 21065.0, 21072.0, 21077.0, 21093.0, 21122.0, 21116.0, 21144.0, 21129.0, 21129.0, 21097.0, 21084.0, 21094.0, 21094.0, 21115.0, 21089.0, 21086.0, 21105.0, 21115.0, 21109.0, 21075.0, 21064.0, 21048.0, 21051.0, 21074.0, 21101.0, 21124.0, 21145.0, 21129.0, 21129.0, 21113.0, 21064.0, 21051.0, 21007.0, 20991.0, 21013.0, 21011.0, 21044.0, 21069.0, 21050.0, 21080.0, 21076.0, 21063.0, 21055.0, 21030.0, 21051.0, 21046.0, 21063.0, 21064.0, 21071.0, 21053.0, 21081.0, 21097.0, 21120.0, 21128.0, 21133.0, 21149.0, 21115.0, 21097.0, 21107.0, 21093.0, 21060.0, 21036.0, 21005.0, 21031.0, 21048.0, 21028.0, 21033.0, 21056.0, 21090.0, 21093.0, 21081.0, 21083.0, 21054.0, 21051.0, 21074.0, 21065.0, 21101.0, 21099.0, 21060.0, 21028.0, 21000.0, 20999.0, 21041.0, 21026.0, 21032.0]
    },
    "slices": {}
  },
  "NumberOfVolumes": 192
}