{
  "aor": 0.0013179166666666667,
  "aqi": 0.0073079658333333325,
  "bids_meta": {
    "AcquisitionMatrixPE": 104,
    "AcquisitionNumber": 1,
    "AcquisitionTime": "12:21:32.847500",
    "BandwidthPerPixelPhaseEncode": 16.578,
    "BaseResolution": 104,
    "BodyPartExamined": "BRAIN",
    "CogAtlasID": "TODO",
    "ConsistencyInfo": "N4_VE11C_LATEST_20160120",
    "ConversionSoftware": "dcm2niix",
    "ConversionSoftwareVersion": "v1.0.20190902",
    "DerivedVendorReportedEchoSpacing": 0.000580009,
    "DeviceSerialNumber": "166018",
    "DwellTime": 2.1e-06,
    "EchoTime": 0.037,
    "EchoTrainLength": 104,
    "EffectiveEchoSpacing": 0.000580009,
    "FlipAngle": 68,
    "ImageComments": "Unaliased_MB6_PE3_LB",
    "ImageOrientationPatientDICOM": [
      0.998575,
      0.0214317,
      0.0488661,
      -0.00801724,
      0.965659,
      -0.259688
    ],
    "ImageType": [
      "ORIGINAL",
      "PRIMARY",
      "M",
      "MB",
      "ND",
      "MOSAIC"
    ],
    "ImagingFrequency": 123.191,
    "InPlanePhaseEncodingDirectionDICOM": "COL",
    "InstitutionAddress": "Washington_Place_6_NYC_NYC_US_10003",
    "InstitutionName": "NYU_Center_for_Brain_Imaging",
    "InstitutionalDepartmentName": "Department",
    "MRAcquisitionType": "2D",
    "MagneticFieldStrength": 3,
    "Manufacturer": "Siemens",
    "ManufacturersModelName": "Prisma",
    "Modality": "MR",
    "MultibandAccelerationFactor": 6,
    "NumberOfVolumes": 192,
    "PartialFourier": 1,
    "PatientPosition": "HFS",
    "PercentPhaseFOV": 100,
    "PhaseEncodingDirection": "j",
    "PhaseEncodingSteps": 104,
    "PhaseResolution": 1,
    "PixelBandwidth": 2290,
    "ProcedureStepDescription": "Investigators_Winawer",
    "ProtocolName": "cmrr_mbepi_s6_2mm_66sl_PA_task-prf",
    "PulseSequenceDetails": "%CustomerSeq%_cmrr_mbep2d_bold",
    "ReceiveCoilActiveElements": "HC1-7",
    "ReceiveCoilName": "HeadNeck_64",
    "ReconMatrixPE": 104,
    "RepetitionTime": 1,
    "SAR": 0.0589005,
    "ScanOptions": "FS",
    "ScanningSequence": "EP",
    "SequenceName": "epfid2d1_104",
    "SequenceVariant": "SK_SS",
    "SeriesDescription": "cmrr_mbepi_s6_2mm_66sl_PA_task-prf",
    "SeriesNumber": 8,
    "ShimSetting": [
      257,
      -12607,
      -8498,
      451,
      -21,
      8,
      -133,
      -44
    ],
    "SliceThickness": 2,
    "SliceTiming": [
      0,
      0.535,
      0.09,
      0.625,
      0.1775,
      0.7125,
      0.2675,
      0.8025,
      0.3575,
      0.8925,
      0.445,
      0,
      0.535,
      0.09,
      0.625,
      0.1775,
      0.7125,
      0.2675,
      0.8025,
      0.3575,
      0.8925,
      0.445,
      0,
      0.535,
      0.09,
      0.625,
      0.1775,
      0.7125,
      0.2675,
      0.8025,
      0.3575,
      0.8925,
      0.445,
      0,
      0.535,
      0.09,
      0.625,
      0.1775,
      0.7125,
      0.2675,
      0.8025,
      0.3575,
      0.8925,
      0.445,
      0,
      0.535,
      0.09,
      0.625,
      0.1775,
      0.7125,
      0.2675,
      0.8025,
      0.3575,
      0.8925,
      0.445,
      0,
      0.535,
      0.09,
      0.625,
      0.1775,
      0.7125,
      0.2675,
      0.8025,
      0.3575,
      0.8925,
      0.445
    ],
    "SoftwareVersions": "syngo_MR_E11",
    "SpacingBetweenSlices": 2,
    "StationName": "AWP166018",
    "TaskName": "prf",
    "TotalReadoutTime": 0.0597409,
    "TxRefAmp": 203.508,
    "WipMemBlock": "e256674e-9161-45d3-86e0-e93375a7d332||Sequence: R016 ve11c/master r/8780670; Nov 27 2017 15:05:12 by eja",
    "acq_id": "PA",
    "dataset": "unknown",
    "dcmmeta_affine": [
      [
        -1.9971507787704468,
        -0.016034480184316635,
        0.10550722479820251,
        107.01654815673828
      ],
      [
        -0.04286348447203636,
        1.9313186407089233,
        -0.5178521871566772,
        -67.95065307617188
      ],
      [
        0.0977322980761528,
        0.5193756818771362,
        1.9289108514785767,
        -81.57173919677734
      ],
      [
        0.0,
        0.0,
        0.0,
        1.0
      ]
    ],
    "dcmmeta_reorient_transform": [
      [
        0.0,
        -1.0,
        0.0,
        103.0
      ],
      [
        1.0,
        0.0,
        0.0,
        0.0
      ],
      [
        0.0,
        0.0,
        1.0,
        0.0
      ],
      [
        0.0,
        0.0,
        0.0,
        1.0
      ]
    ],
    "dcmmeta_shape": [
      104,
      104,
      66,
      192
    ],
    "dcmmeta_slice_dim": 2,
    "dcmmeta_version": 0.6,
    "global": {
      "const": {
        "AccessionNumber": "jpvhv9d1",
        "AcquisitionMatrix": [
          104,
          0,
          0,
          104
        ],
        "AngioFlag": "N",
        "BitsAllocated": 16,
        "BitsStored": 16,
        "BodyPartExamined": "BRAIN",
        "Columns": 936,
        "EchoNumbers": 1,
        "EchoTime": 37.0,
        "EchoTrainLength": 104,
        "FlipAngle": 68.0,
        "HighBit": 15,
        "ImageOrientationPatient": [
          0.99857537523322,
          0.02143174273425,
          0.04886614759947,
          -0.0080172399129,
          0.96565933540112,
          -0.2596878353271
        ],
        "ImagePositionPatient": [
          -929.50936805185,
          -952.23494665973,
          147.327600537
        ],
        "ImageType": [
          "ORIGINAL",
          "PRIMARY",
          "M",
          "MB",
          "ND",
          "MOSAIC"
        ],
        "ImagedNucleus": "1H",
        "ImagingFrequency": 123.190848,
        "InPlanePhaseEncodingDirection": "COL",
        "MRAcquisitionType": "2D",
        "MagneticFieldStrength": 3.0,
        "Manufacturer": "SIEMENS",
        "ManufacturerModelName": "Prisma",
        "Modality": "MR",
        "NumberOfAverages": 1.0,
        "NumberOfPhaseEncodingSteps": 104,
        "PercentPhaseFieldOfView": 100.0,
        "PercentSampling": 100.0,
        "PerformedProcedureStepStartTime": "120926.853000",
        "PhotometricInterpretation": "MONOCHROME2",
        "PixelBandwidth": 2290.0,
        "PixelRepresentation": 0,
        "PixelSpacing": [
          2.0,
          2.0
        ],
        "ProtocolName": "cmrr_mbepi_s6_2mm_66sl_PA_task-prf",
        "RepetitionTime": 1000.0,
        "Rows": 936,
        "SAR": 0.05890051524164,
        "SamplesPerPixel": 1,
        "ScanOptions": "FS",
        "ScanningSequence": "EP",
        "SequenceName": "epfid2d1_104",
        "SequenceVariant": [
          "SK",
          "SS"
        ],
        "SeriesDescription": "cmrr_mbepi_s6_2mm_66sl_PA_task-prf",
        "SeriesNumber": 8,
        "SeriesTime": "122255.592000",
        "SliceLocation": -55.432599595336,
        "SliceThickness": 2.0,
        "SmallestImagePixelValue": 0,
        "SoftwareVersions": "syngo MR E11",
        "SpacingBetweenSlices": 1.9999999695103,
        "SpecificCharacterSet": "ISO_IR 100",
        "StudyID": "1",
        "StudyTime": "120926.714000",
        "TransmitCoilName": "Body",
        "VariableFlipAngleFlag": "N",
        "WindowCenterWidthExplanation": "Algo1",
        "dBdt": 0.0
      },
      "slices": {}
    },
    "modality": "bold",
    "run_id": 1,
    "session_id": "nyu3t01",
    "subject_id": "wlsubj071",
    "task_id": "prf",
    "time": {
      "samples": {
        "AcquisitionNumber": [
          1,
          2,
          3,
          4,
          5,
          6,
          7,
          8,
          9,
          10,
          11,
          12,
          13,
          14,
          15,
          16,
          17,
          18,
          19,
          20,
          21,
          22,
          23,
          24,
          25,
          26,
          27,
          28,
          29,
          30,
          31,
          32,
          33,
          34,
          35,
          36,
          37,
          38,
          39,
          40,
          41,
          42,
          43,
          44,
          45,
          46,
          47,
          48,
          49,
          50,
          51,
          52,
          53,
          54,
          55,
          56,
          57,
          58,
          59,
          60,
          61,
          62,
          63,
          64,
          65,
          66,
          67,
          68,
          69,
          70,
          71,
          72,
          73,
          74,
          75,
          76,
          77,
          78,
          79,
          80,
          81,
          82,
          83,
          84,
          85,
          86,
          87,
          88,
          89,
          90,
          91,
          92,
          93,
          94,
          95,
          96,
          97,
          98,
          99,
          100,
          101,
          102,
          103,
          104,
          105,
          106,
          107,
          108,
          109,
          110,
          111,
          112,
          113,
          114,
          115,
          116,
          117,
          118,
          119,
          120,
          121,
          122,
          123,
          124,
          125,
          126,
          127,
          128,
          129,
          130,
          131,
          132,
          133,
          134,
          135,
          136,
          137,
          138,
          139,
          140,
          141,
          142,
          143,
          144,
          145,
          146,
          147,
          148,
          149,
          150,
          151,
          152,
          153,
          154,
          155,
          156,
          157,
          158,
          159,
          160,
          161,
          162,
          163,
          164,
          165,
          166,
          167,
          168,
          169,
          170,
          171,
          172,
          173,
          174,
          175,
          176,
          177,
          178,
          179,
          180,
          181,
          182,
          183,
          184,
          185,
          186,
          187,
          188,
          189,
          190,
          191,
          192
        ],
        "AcquisitionTime": [
          "122132.847500",
          "122133.847500",
          "122134.847500",
          "122135.847500",
          "122136.847500",
          "122137.847500",
          "122138.847500",
          "122139.847500",
          "122140.847500",
          "122141.847500",
          "122142.847500",
          "122143.847500",
          "122144.847500",
          "122145.847500",
          "122146.847500",
          "122147.847500",
          "122148.847500",
          "122149.847500",
          "122150.847500",
          "122151.847500",
          "122152.847500",
          "122153.847500",
          "122154.847500",
          "122155.847500",
          "122156.847500",
          "122157.847500",
          "122158.847500",
          "122159.847500",
          "122200.847500",
          "122201.847500",
          "122202.847500",
          "122203.847500",
          "122204.847500",
          "122205.847500",
          "122206.847500",
          "122207.847500",
          "122208.847500",
          "122209.847500",
          "122210.847500",
          "122211.847500",
          "122212.847500",
          "122213.847500",
          "122214.847500",
          "122215.847500",
          "122216.847500",
          "122217.847500",
          "122218.847500",
          "122219.847500",
          "122220.847500",
          "122221.847500",
          "122222.847500",
          "122223.847500",
          "122224.847500",
          "122225.847500",
          "122226.847500",
          "122227.847500",
          "122228.847500",
          "122229.847500",
          "122230.847500",
          "122231.847500",
          "122232.847500",
          "122233.847500",
          "122234.847500",
          "122235.847500",
          "122236.847500",
          "122237.847500",
          "122238.847500",
          "122239.847500",
          "122240.847500",
          "122241.847500",
          "122242.847500",
          "122243.847500",
          "122244.847500",
          "122245.847500",
          "122246.847500",
          "122247.847500",
          "122248.847500",
          "122249.847500",
          "122250.847500",
          "122251.847500",
          "122252.847500",
          "122253.847500",
          "122254.847500",
          "122255.847500",
          "122256.847500",
          "122257.847500",
          "122258.847500",
          "122259.847500",
          "122300.847500",
          "122301.847500",
          "122302.847500",
          "122303.847500",
          "122304.847500",
          "122305.847500",
          "122306.847500",
          "122307.847500",
          "122308.847500",
          "122309.847500",
          "122310.847500",
          "122311.847500",
          "122312.847500",
          "122313.847500",
          "122314.847500",
          "122315.847500",
          "122316.847500",
          "122317.847500",
          "122318.847500",
          "122319.847500",
          "122320.847500",
          "122321.847500",
          "122322.847500",
          "122323.847500",
          "122324.847500",
          "122325.847500",
          "122326.847500",
          "122327.847500",
          "122328.847500",
          "122329.847500",
          "122330.847500",
          "122331.847500",
          "122332.847500",
          "122333.847500",
          "122334.847500",
          "122335.847500",
          "122336.847500",
          "122337.847500",
          "122338.847500",
          "122339.847500",
          "122340.847500",
          "122341.847500",
          "122342.847500",
          "122343.847500",
          "122344.847500",
          "122345.847500",
          "122346.847500",
          "122347.847500",
          "122348.847500",
          "122349.847500",
          "122350.847500",
          "122351.847500",
          "122352.847500",
          "122353.847500",
          "122354.847500",
          "122355.847500",
          "122356.847500",
          "122357.847500",
          "122358.847500",
          "122359.847500",
          "122400.847500",
          "122401.847500",
          "122402.847500",
          "122403.847500",
          "122404.847500",
          "122405.847500",
          "122406.847500",
          "122407.847500",
          "122408.847500",
          "122409.847500",
          "122410.847500",
          "122411.847500",
          "122412.847500",
          "122413.847500",
          "122414.847500",
          "122415.847500",
          "122416.847500",
          "122417.847500",
          "122418.847500",
          "122419.847500",
          "122420.847500",
          "122421.847500",
          "122422.847500",
          "122423.847500",
          "122424.847500",
          "122425.847500",
          "122426.847500",
          "122427.847500",
          "122428.847500",
          "122429.847500",
          "122430.847500",
          "122431.847500",
          "122432.847500",
          "122433.847500",
          "122434.847500",
          "122435.847500",
          "122436.847500",
          "122437.847500",
          "122438.847500",
          "122439.847500",
          "122440.847500",
          "122441.847500",
          "122442.847500",
          "122443.847500"
        ],
        "ContentTime": [
          "122255.594000",
          "122255.597000",
          "122255.601000",
          "122255.603000",
          "122255.607000",
          "122255.610000",
          "122255.613000",
          "122255.616000",
          "122255.619000",
          "122255.625000",
          "122255.628000",
          "122255.638000",
          "122255.641000",
          "122255.644000",
          "122255.647000",
          "122255.650000",
          "122255.653000",
          "122255.656000",
          "122255.659000",
          "122255.662000",
          "122255.665000",
          "122255.668000",
          "122255.671000",
          "122255.674000",
          "122255.678000",
          "122255.680000",
          "122255.683000",
          "122255.686000",
          "122255.689000",
          "122255.692000",
          "122255.695000",
          "122255.698000",
          "122255.701000",
          "122255.704000",
          "122255.707000",
          "122255.710000",
          "122255.713000",
          "122255.715000",
          "122255.718000",
          "122255.721000",
          "122255.724000",
          "122315.551000",
          "122315.554000",
          "122315.557000",
          "122315.560000",
          "122315.563000",
          "122315.565000",
          "122315.568000",
          "122315.571000",
          "122315.574000",
          "122315.577000",
          "122315.580000",
          "122315.583000",
          "122315.586000",
          "122315.588000",
          "122315.591000",
          "122315.599000",
          "122315.602000",
          "122315.605000",
          "122315.608000",
          "122315.611000",
          "122315.614000",
          "122315.617000",
          "122315.619000",
          "122315.622000",
          "122315.627000",
          "122315.630000",
          "122315.633000",
          "122315.636000",
          "122335.551000",
          "122335.554000",
          "122335.557000",
          "122335.565000",
          "122335.568000",
          "122335.571000",
          "122335.579000",
          "122335.581000",
          "122335.584000",
          "122335.587000",
          "122335.590000",
          "122335.593000",
          "122335.596000",
          "122335.599000",
          "122335.601000",
          "122335.604000",
          "122335.607000",
          "122335.610000",
          "122335.613000",
          "122335.615000",
          "122335.618000",
          "122335.621000",
          "122335.624000",
          "122335.627000",
          "122335.630000",
          "122335.633000",
          "122335.636000",
          "122335.638000",
          "122355.550000",
          "122355.567000",
          "122355.580000",
          "122355.583000",
          "122355.586000",
          "122355.588000",
          "122355.591000",
          "122355.594000",
          "122355.597000",
          "122355.600000",
          "122355.603000",
          "122355.606000",
          "122355.608000",
          "122355.611000",
          "122355.614000",
          "122355.617000",
          "122355.620000",
          "122355.623000",
          "122355.626000",
          "122355.629000",
          "122355.632000",
          "122355.635000",
          "122355.637000",
          "122355.640000",
          "122355.643000",
          "122355.646000",
          "122355.649000",
          "122355.652000",
          "122355.655000",
          "122415.550000",
          "122415.553000",
          "122415.556000",
          "122415.558000",
          "122415.561000",
          "122415.564000",
          "122415.567000",
          "122415.570000",
          "122415.573000",
          "122415.576000",
          "122415.578000",
          "122415.581000",
          "122415.584000",
          "122415.587000",
          "122415.590000",
          "122415.593000",
          "122415.596000",
          "122415.599000",
          "122415.601000",
          "122415.604000",
          "122415.607000",
          "122415.610000",
          "122415.613000",
          "122415.616000",
          "122415.619000",
          "122415.622000",
          "122415.625000",
          "122415.628000",
          "122435.550000",
          "122435.561000",
          "122435.564000",
          "122435.568000",
          "122435.571000",
          "122435.574000",
          "122435.577000",
          "122435.580000",
          "122435.583000",
          "122435.585000",
          "122435.588000",
          "122435.591000",
          "122435.594000",
          "122435.597000",
          "122435.600000",
          "122435.603000",
          "122435.606000",
          "122435.609000",
          "122435.611000",
          "122435.615000",
          "122435.617000",
          "122435.620000",
          "122435.623000",
          "122435.626000",
          "122435.629000",
          "122435.632000",
          "122435.635000",
          "122435.637000",
          "122445.374000",
          "122445.377000",
          "122445.380000",
          "122445.383000",
          "122445.386000",
          "122445.389000",
          "122445.391000",
          "122445.394000",
          "122445.397000",
          "122445.400000"
        ],
        "InstanceCreationTime": [
          "122255.594000",
          "122255.597000",
          "122255.601000",
          "122255.603000",
          "122255.607000",
          "122255.610000",
          "122255.613000",
          "122255.616000",
          "122255.619000",
          "122255.625000",
          "122255.628000",
          "122255.638000",
          "122255.641000",
          "122255.644000",
          "122255.647000",
          "122255.650000",
          "122255.653000",
          "122255.656000",
          "122255.659000",
          "122255.662000",
          "122255.665000",
          "122255.668000",
          "122255.671000",
          "122255.674000",
          "122255.678000",
          "122255.680000",
          "122255.683000",
          "122255.686000",
          "122255.689000",
          "122255.692000",
          "122255.695000",
          "122255.698000",
          "122255.701000",
          "122255.704000",
          "122255.707000",
          "122255.710000",
          "122255.713000",
          "122255.715000",
          "122255.718000",
          "122255.721000",
          "122255.724000",
          "122315.551000",
          "122315.554000",
          "122315.557000",
          "122315.560000",
          "122315.563000",
          "122315.565000",
          "122315.568000",
          "122315.571000",
          "122315.574000",
          "122315.577000",
          "122315.580000",
          "122315.583000",
          "122315.586000",
          "122315.588000",
          "122315.591000",
          "122315.599000",
          "122315.602000",
          "122315.605000",
          "122315.608000",
          "122315.611000",
          "122315.614000",
          "122315.617000",
          "122315.619000",
          "122315.622000",
          "122315.627000",
          "122315.630000",
          "122315.633000",
          "122315.636000",
          "122335.551000",
          "122335.554000",
          "122335.557000",
          "122335.565000",
          "122335.568000",
          "122335.571000",
          "122335.579000",
          "122335.581000",
          "122335.584000",
          "122335.587000",
          "122335.590000",
          "122335.593000",
          "122335.596000",
          "122335.599000",
          "122335.601000",
          "122335.604000",
          "122335.607000",
          "122335.610000",
          "122335.613000",
          "122335.615000",
          "122335.618000",
          "122335.621000",
          "122335.624000",
          "122335.627000",
          "122335.630000",
          "122335.633000",
          "122335.636000",
          "122335.638000",
          "122355.550000",
          "122355.567000",
          "122355.580000",
          "122355.583000",
          "122355.586000",
          "122355.588000",
          "122355.591000",
          "122355.594000",
          "122355.597000",
          "122355.600000",
          "122355.603000",
          "122355.606000",
          "122355.608000",
          "122355.611000",
          "122355.614000",
          "122355.617000",
          "122355.620000",
          "122355.623000",
          "122355.626000",
          "122355.629000",
          "122355.632000",
          "122355.635000",
          "122355.637000",
          "122355.640000",
          "122355.643000",
          "122355.646000",
          "122355.649000",
          "122355.652000",
          "122355.655000",
          "122415.550000",
          "122415.553000",
          "122415.556000",
          "122415.558000",
          "122415.561000",
          "122415.564000",
          "122415.567000",
          "122415.570000",
          "122415.573000",
          "122415.576000",
          "122415.578000",
          "122415.581000",
          "122415.584000",
          "122415.587000",
          "122415.590000",
          "122415.593000",
          "122415.596000",
          "122415.599000",
          "122415.601000",
          "122415.604000",
          "122415.607000",
          "122415.610000",
          "122415.613000",
          "122415.616000",
          "122415.619000",
          "122415.622000",
          "122415.625000",
          "122415.628000",
          "122435.550000",
          "122435.561000",
          "122435.564000",
          "122435.568000",
          "122435.571000",
          "122435.574000",
          "122435.577000",
          "122435.580000",
          "122435.583000",
          "122435.585000",
          "122435.588000",
          "122435.591000",
          "122435.594000",
          "122435.597000",
          "122435.600000",
          "122435.603000",
          "122435.606000",
          "122435.609000",
          "122435.611000",
          "122435.615000",
          "122435.617000",
          "122435.620000",
          "122435.623000",
          "122435.626000",
          "122435.629000",
          "122435.632000",
          "122435.635000",
          "122435.637000",
          "122445.374000",
          "122445.377000",
          "122445.380000",
          "122445.383000",
          "122445.386000",
          "122445.389000",
          "122445.391000",
          "122445.394000",
          "122445.397000",
          "122445.400000"
        ],
        "InstanceNumber": [
          1,
          2,
          3,
          4,
          5,
          6,
          7,
          8,
          9,
          10,
          11,
          12,
          13,
          14,
          15,
          16,
          17,
          18,
          19,
          20,
          21,
          22,
          23,
          24,
          25,
          26,
          27,
          28,
          29,
          30,
          31,
          32,
          33,
          34,
          35,
          36,
          37,
          38,
          39,
          40,
          41,
          42,
          43,
          44,
          45,
          46,
          47,
          48,
          49,
          50,
          51,
          52,
          53,
          54,
          55,
          56,
          57,
          58,
          59,
          60,
          61,
          62,
          63,
          64,
          65,
          66,
          67,
          68,
          69,
          70,
          71,
          72,
          73,
          74,
          75,
          76,
          77,
          78,
          79,
          80,
          81,
          82,
          83,
          84,
          85,
          86,
          87,
          88,
          89,
          90,
          91,
          92,
          93,
          94,
          95,
          96,
          97,
          98,
          99,
          100,
          101,
          102,
          103,
          104,
          105,
          106,
          107,
          108,
          109,
          110,
          111,
          112,
          113,
          114,
          115,
          116,
          117,
          118,
          119,
          120,
          121,
          122,
          123,
          124,
          125,
          126,
          127,
          128,
          129,
          130,
          131,
          132,
          133,
          134,
          135,
          136,
          137,
          138,
          139,
          140,
          141,
          142,
          143,
          144,
          145,
          146,
          147,
          148,
          149,
          150,
          151,
          152,
          153,
          154,
          155,
          156,
          157,
          158,
          159,
          160,
          161,
          162,
          163,
          164,
          165,
          166,
          167,
          168,
          169,
          170,
          171,
          172,
          173,
          174,
          175,
          176,
          177,
          178,
          179,
          180,
          181,
          182,
          183,
          184,
          185,
          186,
          187,
          188,
          189,
          190,
          191,
          192
        ],
        "LargestImagePixelValue": [
          30150,
          29880,
          29943,
          30209,
          30150,
          30255,
          30257,
          29902,
          30081,
          30273,
          30405,
          30180,
          30142,
          30571,
          30736,
          30709,
          30877,
          31395,
          31156,
          30647,
          30770,
          30865,
          30215,
          29878,
          30172,
          30479,
          30400,
          30683,
          30827,
          30684,
          30850,
          30749,
          31092,
          31537,
          32233,
          31330,
          31108,
          30616,
          30245,
          29961,
          30380,
          30655,
          30032,
          30127,
          30396,
          30901,
          30051,
          30118,
          29973,
          30464,
          30807,
          30416,
          30581,
          30912,
          30460,
          30436,
          29877,
          30586,
          30347,
          30708,
          30384,
          29975,
          30331,
          30370,
          30440,
          30851,
          31949,
          30455,
          29998,
          31282,
          31234,
          31155,
          30690,
          30479,
          29999,
          29785,
          29168,
          29481,
          29501,
          29728,
          30209,
