{
  "aor": 0.0008125520833333332,
  "aqi": 0.006865723177083334,
  "bids_meta": {
    "AcquisitionMatrixPE": 104,
    "AcquisitionNumber": 1,
    "AcquisitionTime": "16:35:34.667500",
    "BandwidthPerPixelPhaseEncode": 16.578,
    "BaseResolution": 104,
    "BodyPartExamined": "BRAIN",
    "CogAtlasID": "TODO",
    "ConsistencyInfo": "N4_VE11C_LATEST_20160120",
    "ConversionSoftware": "dcm2niix",
    "ConversionSoftwareVersion": "v1.0.20190902",
    "DerivedVendorReportedEchoSpacing": 0.000580009,
    "DeviceSerialNumber": "166018",
    "DwellTime": 2.1e-06,
    "EchoTime": 0.037,
    "EchoTrainLength": 104,
    "EffectiveEchoSpacing": 0.000580009,
    "FlipAngle": 68,
    "ImageComments": "Unaliased_MB6_PE3_LB",
    "ImageOrientationPatientDICOM": [
      0.998528,
      0.00292711,
      0.0541541,
      0.0113284,
      0.965258,
      -0.261055
    ],
    "ImageType": [
      "ORIGINAL",
      "PRIMARY",
      "FMRI",
      "NONE",
      "MB",
      "ND",
      "MOSAIC"
    ],
    "ImagingFrequency": 123.191,
    "InPlanePhaseEncodingDirectionDICOM": "COL",
    "InstitutionAddress": "Washington_Place_6_NYC_NYC_US_10003",
    "InstitutionName": "NYU_-_CBI",
    "InstitutionalDepartmentName": "Department",
    "MRAcquisitionType": "2D",
    "MagneticFieldStrength": 3,
    "Manufacturer": "Siemens",
    "ManufacturersModelName": "Prisma",
    "Modality": "MR",
    "MultibandAccelerationFactor": 6,
    "NumberOfVolumes": 192,
    "PartialFourier": 1,
    "PatientPosition": "HFS",
    "PercentPhaseFOV": 100,
    "PhaseEncodingDirection": "j",
    "PhaseEncodingSteps": 104,
    "PhaseResolution": 1,
    "PixelBandwidth": 2290,
    "ProcedureStepDescription": "Investigators_Winawer",
    "ProtocolName": "cmrr_mbepi_s6_2mm_66sl_PA_task-prf",
    "PulseSequenceDetails": "%CustomerSeq%_cmrr_mbep2d_bold",
    "ReceiveCoilActiveElements": "HC1-7",
    "ReceiveCoilName": "HeadNeck_64",
    "ReconMatrixPE": 104,
    "RepetitionTime": 1,
    "SAR": 0.0751342,
    "ScanOptions": "FS",
    "ScanningSequence": "EP",
    "SequenceName": "epfid2d1_104",
    "SequenceVariant": "SK_SS",
    "SeriesDescription": "cmrr_mbepi_s6_2mm_66sl_PA_task-prf",
    "SeriesNumber": 8,
    "ShimSetting": [
      273,
      -12572,
      -8409,
      330,
      -51,
      -69,
      -97,
      26
    ],
    "SliceThickness": 2,
    "SliceTiming": [
      0,
      0.535,
      0.09,
      0.6225,
      0.1775,
      0.7125,
      0.2675,
      0.8025,
      0.3575,
      0.89,
      0.445,
      0,
      0.535,
      0.09,
      0.6225,
      0.1775,
      0.7125,
      0.2675,
      0.8025,
      0.3575,
      0.89,
      0.445,
      0,
      0.535,
      0.09,
      0.6225,
      0.1775,
      0.7125,
      0.2675,
      0.8025,
      0.3575,
      0.89,
      0.445,
      0,
      0.535,
      0.09,
      0.6225,
      0.1775,
      0.7125,
      0.2675,
      0.8025,
      0.3575,
      0.89,
      0.445,
      0,
      0.535,
      0.09,
      0.6225,
      0.1775,
      0.7125,
      0.2675,
      0.8025,
      0.3575,
      0.89,
      0.445,
      0,
      0.535,
      0.09,
      0.6225,
      0.1775,
      0.7125,
      0.2675,
      0.8025,
      0.3575,
      0.89,
      0.445
    ],
    "SoftwareVersions": "syngo_MR_E11",
    "SpacingBetweenSlices": 2,
    "StationName": "AWP166018",
    "TaskName": "prf",
    "TotalReadoutTime": 0.0597409,
    "TxRefAmp": 230.408,
    "WipMemBlock": "18709dc5-b9c1-4c5f-8d98-c15ecd1181b8||Sequence: R016 ve11c/master r/8780670; Nov 27 2017 15:05:12 by eja",
    "acq_id": "PA",
    "dataset": "unknown",
    "dcmmeta_affine": [
      [
        -1.9970566034317017,
        0.022656887769699097,
        0.10607355833053589,
        108.55162811279297
      ],
      [
        -0.005854212213307619,
        1.9305150508880615,
        -0.5225681066513062,
        -72.21367645263672
      ],
      [
        0.10830818116664886,
        0.5221095085144043,
        1.9276076555252075,
        -64.4687728881836
      ],
      [
        0.0,
        0.0,
        0.0,
        1.0
      ]
    ],
    "dcmmeta_reorient_transform": [
      [
        0.0,
        -1.0,
        0.0,
        103.0
      ],
      [
        1.0,
        0.0,
        0.0,
        0.0
      ],
      [
        0.0,
        0.0,
        1.0,
        0.0
      ],
      [
        0.0,
        0.0,
        0.0,
        1.0
      ]
    ],
    "dcmmeta_shape": [
      104,
      104,
      66,
      192
    ],
    "dcmmeta_slice_dim": 2,
    "dcmmeta_version": 0.6,
    "global": {
      "const": {
        "AccessionNumber": "jur4Lwg3",
        "AcquisitionMatrix": [
          104,
          0,
          0,
          104
        ],
        "AngioFlag": "N",
        "BitsAllocated": 16,
        "BitsStored": 16,
        "BodyPartExamined": "BRAIN",
        "Columns": 936,
        "EchoNumbers": 1,
        "EchoTime": 37.0,
        "EchoTrainLength": 104,
        "FlipAngle": 68.0,
        "HighBit": 15,
        "ImageOrientationPatient": [
          0.99852830026932,
          0.00292710608909,
          0.05415409136158,
          0.01132844359189,
          0.9652575224754,
          -0.2610547484158
        ],
        "ImagePositionPatient": [
          -951.08609740043,
          -932.15898372308,
          161.44985133697
        ],
        "ImageType": [
          "ORIGINAL",
          "PRIMARY",
          "FMRI",
          "NONE",
          "MB",
          "ND",
          "MOSAIC"
        ],
        "ImagedNucleus": "1H",
        "ImagingFrequency": 123.190992,
        "InPlanePhaseEncodingDirection": "COL",
        "MRAcquisitionType": "2D",
        "MagneticFieldStrength": 3.0,
        "Manufacturer": "SIEMENS",
        "ManufacturerModelName": "Prisma",
        "Modality": "MR",
        "NumberOfAverages": 1.0,
        "NumberOfPhaseEncodingSteps": 104,
        "PercentPhaseFieldOfView": 100.0,
        "PercentSampling": 100.0,
        "PerformedProcedureStepStartTime": "161503.964000",
        "PhotometricInterpretation": "MONOCHROME2",
        "PixelBandwidth": 2290.0,
        "PixelRepresentation": 0,
        "PixelSpacing": [
          2.0,
          2.0
        ],
        "ProtocolName": "cmrr_mbepi_s6_2mm_66sl_PA_task-prf",
        "RepetitionTime": 1000.0,
        "Rows": 936,
        "SAR": 0.0751342209519,
        "SamplesPerPixel": 1,
        "ScanOptions": "FS",
        "ScanningSequence": "EP",
        "SequenceName": "epfid2d1_104",
        "SequenceVariant": [
          "SK",
          "SS"
        ],
        "SeriesDescription": "cmrr_mbepi_s6_2mm_66sl_PA_task-prf",
        "SeriesNumber": 8,
        "SeriesTime": "163630.533000",
        "SliceLocation": -37.509738888644,
        "SliceThickness": 2.0,
        "SmallestImagePixelValue": 0,
        "SoftwareVersions": "syngo MR E11",
        "SpacingBetweenSlices": 2.0000000737764,
        "SpecificCharacterSet": "ISO_IR 100",
        "StudyID": "1",
        "StudyTime": "161503.852000",
        "TransmitCoilName": "Body",
        "VariableFlipAngleFlag": "N",
        "WindowCenterWidthExplanation": "Algo1",
        "dBdt": 0.0
      },
      "slices": {}
    },
    "modality": "bold",
    "run_id": 1,
    "session_id": "nyu3t01",
    "subject_id": "wlsubj088",
    "task_id": "prf",
    "time": {
      "samples": {
        "AcquisitionNumber": [
          1,
          2,
          3,
          4,
          5,
          6,
          7,
          8,
          9,
          10,
          11,
          12,
          13,
          14,
          15,
          16,
          17,
          18,
          19,
          20,
          21,
          22,
          23,
          24,
          25,
          26,
          27,
          28,
          29,
          30,
          31,
          32,
          33,
          34,
          35,
          36,
          37,
          38,
          39,
          40,
          41,
          42,
          43,
          44,
          45,
          46,
          47,
          48,
          49,
          50,
          51,
          52,
          53,
          54,
          55,
          56,
          57,
          58,
          59,
          60,
          61,
          62,
          63,
          64,
          65,
          66,
          67,
          68,
          69,
          70,
          71,
          72,
          73,
          74,
          75,
          76,
          77,
          78,
          79,
          80,
          81,
          82,
          83,
          84,
          85,
          86,
          87,
          88,
          89,
          90,
          91,
          92,
          93,
          94,
          95,
          96,
          97,
          98,
          99,
          100,
          101,
          102,
          103,
          104,
          105,
          106,
          107,
          108,
          109,
          110,
          111,
          112,
          113,
          114,
          115,
          116,
          117,
          118,
          119,
          120,
          121,
          122,
          123,
          124,
          125,
          126,
          127,
          128,
          129,
          130,
          131,
          132,
          133,
          134,
          135,
          136,
          137,
          138,
          139,
          140,
          141,
          142,
          143,
          144,
          145,
          146,
          147,
          148,
          149,
          150,
          151,
          152,
          153,
          154,
          155,
          156,
          157,
          158,
          159,
          160,
          161,
          162,
          163,
          164,
          165,
          166,
          167,
          168,
          169,
          170,
          171,
          172,
          173,
          174,
          175,
          176,
          177,
          178,
          179,
          180,
          181,
          182,
          183,
          184,
          185,
          186,
          187,
          188,
          189,
          190,
          191,
          192
        ],
        "AcquisitionTime": [
          "163534.667500",
          "163535.667500",
          "163536.667500",
          "163537.667500",
          "163538.667500",
          "163539.667500",
          "163540.667500",
          "163541.667500",
          "163542.667500",
          "163543.667500",
          "163544.667500",
          "163545.667500",
          "163546.667500",
          "163547.667500",
          "163548.667500",
          "163549.667500",
          "163550.667500",
          "163551.667500",
          "163552.667500",
          "163553.667500",
          "163554.667500",
          "163555.667500",
          "163556.667500",
          "163557.667500",
          "163558.667500",
          "163559.667500",
          "163600.667500",
          "163601.667500",
          "163602.667500",
          "163603.667500",
          "163604.667500",
          "163605.667500",
          "163606.667500",
          "163607.667500",
          "163608.667500",
          "163609.667500",
          "163610.667500",
          "163611.667500",
          "163612.667500",
          "163613.667500",
          "163614.667500",
          "163615.667500",
          "163616.667500",
          "163617.667500",
          "163618.667500",
          "163619.667500",
          "163620.667500",
          "163621.667500",
          "163622.667500",
          "163623.667500",
          "163624.667500",
          "163625.667500",
          "163626.667500",
          "163627.667500",
          "163628.667500",
          "163629.667500",
          "163630.667500",
          "163631.667500",
          "163632.667500",
          "163633.667500",
          "163634.667500",
          "163635.667500",
          "163636.667500",
          "163637.667500",
          "163638.667500",
          "163639.667500",
          "163640.667500",
          "163641.667500",
          "163642.667500",
          "163643.667500",
          "163644.667500",
          "163645.667500",
          "163646.667500",
          "163647.667500",
          "163648.667500",
          "163649.667500",
          "163650.667500",
          "163651.667500",
          "163652.667500",
          "163653.667500",
          "163654.667500",
          "163655.667500",
          "163656.667500",
          "163657.667500",
          "163658.667500",
          "163659.667500",
          "163700.667500",
          "163701.667500",
          "163702.667500",
          "163703.667500",
          "163704.667500",
          "163705.667500",
          "163706.667500",
          "163707.667500",
          "163708.667500",
          "163709.667500",
          "163710.667500",
          "163711.667500",
          "163712.667500",
          "163713.667500",
          "163714.667500",
          "163715.667500",
          "163716.667500",
          "163717.667500",
          "163718.667500",
          "163719.667500",
          "163720.667500",
          "163721.667500",
          "163722.667500",
          "163723.667500",
          "163724.667500",
          "163725.667500",
          "163726.667500",
          "163727.667500",
          "163728.667500",
          "163729.667500",
          "163730.667500",
          "163731.667500",
          "163732.667500",
          "163733.667500",
          "163734.667500",
          "163735.667500",
          "163736.667500",
          "163737.667500",
          "163738.667500",
          "163739.667500",
          "163740.667500",
          "163741.667500",
          "163742.667500",
          "163743.667500",
          "163744.667500",
          "163745.667500",
          "163746.667500",
          "163747.667500",
          "163748.667500",
          "163749.667500",
          "163750.667500",
          "163751.667500",
          "163752.667500",
          "163753.667500",
          "163754.667500",
          "163755.667500",
          "163756.667500",
          "163757.667500",
          "163758.667500",
          "163759.667500",
          "163800.667500",
          "163801.667500",
          "163802.667500",
          "163803.667500",
          "163804.667500",
          "163805.667500",
          "163806.667500",
          "163807.667500",
          "163808.667500",
          "163809.667500",
          "163810.667500",
          "163811.667500",
          "163812.667500",
          "163813.667500",
          "163814.667500",
          "163815.667500",
          "163816.667500",
          "163817.667500",
          "163818.667500",
          "163819.667500",
          "163820.667500",
          "163821.667500",
          "163822.667500",
          "163823.667500",
          "163824.667500",
          "163825.667500",
          "163826.667500",
          "163827.667500",
          "163828.667500",
          "163829.667500",
          "163830.667500",
          "163831.667500",
          "163832.667500",
          "163833.667500",
          "163834.667500",
          "163835.667500",
          "163836.667500",
          "163837.667500",
          "163838.667500",
          "163839.667500",
          "163840.667500",
          "163841.667500",
          "163842.667500",
          "163843.667500",
          "163844.667500",
          "163845.667500"
        ],
        "ContentTime": [
          "163630.536000",
          "163631.142000",
          "163631.913000",
          "163632.545000",
          "163633.357000",
          "163634.014000",
          "163634.792000",
          "163635.477000",
          "163636.213000",
          "163636.935000",
          "163637.630000",
          "163638.304000",
          "163639.028000",
          "163639.699000",
          "163640.459000",
          "163641.152000",
          "163641.912000",
          "163642.527000",
          "163643.271000",
          "163643.935000",
          "163644.661000",
          "163645.334000",
          "163646.054000",
          "163646.794000",
          "163647.502000",
          "163648.204000",
          "163648.988000",
          "163649.589000",
          "163650.373000",
          "163650.995000",
          "163651.737000",
          "163652.427000",
          "163653.213000",
          "163653.813000",
          "163654.561000",
          "163655.279000",
          "163656.009000",
          "163656.694000",
          "163657.401000",
          "163658.080000",
          "163658.818000",
          "163659.456000",
          "163700.209000",
          "163700.917000",
          "163701.624000",
          "163702.232000",
          "163703.009000",
          "163703.627000",
          "163704.385000",
          "163705.053000",
          "163705.766000",
          "163706.456000",
          "163707.220000",
          "163707.987000",
          "163708.732000",
          "163709.371000",
          "163710.119000",
          "163710.780000",
          "163711.505000",
          "163712.178000",
          "163712.988000",
          "163713.575000",
          "163714.340000",
          "163715.053000",
          "163715.768000",
          "163716.565000",
          "163717.296000",
          "163718.055000",
          "163718.718000",
          "163719.443000",
          "163720.140000",
          "163720.902000",
          "163721.595000",
          "163722.345000",
          "163723.081000",
          "163723.732000",
          "163724.495000",
          "163725.152000",
          "163725.921000",
          "163726.573000",
          "163727.229000",
          "163727.993000",
          "163728.626000",
          "163729.408000",
          "163730.087000",
          "163730.783000",
          "163731.485000",
          "163732.181000",
          "163732.900000",
          "163733.596000",
          "163734.343000",
          "163735.023000",
          "163735.742000",
          "163736.427000",
          "163737.168000",
          "163737.827000",
          "163738.578000",
          "163739.262000",
          "163739.981000",
          "163740.672000",
          "163741.385000",
          "163742.064000",
          "163742.790000",
          "163743.461000",
          "163744.334000",
          "163745.024000",
          "163745.744000",
          "163746.394000",
          "163747.129000",
          "163747.803000",
          "163748.534000",
          "163749.207000",
          "163750.034000",
          "163750.674000",
          "163751.370000",
          "163752.083000",
          "163752.781000",
          "163753.476000",
          "163754.194000",
          "163754.970000",
          "163755.592000",
          "163756.322000",
          "163757.064000",
          "163757.726000",
          "163758.480000",
          "163759.164000",
          "163759.896000",
          "163800.590000",
          "163801.298000",
          "163802.001000",
          "163802.679000",
          "163803.358000",
          "163804.077000",
          "163804.781000",
          "163805.481000",
          "163806.194000",
          "163806.919000",
          "163807.574000",
          "163808.282000",
          "163809.041000",
          "163809.686000",
          "163810.371000",
          "163811.130000",
          "163811.832000",
          "163812.506000",
          "163813.190000",
          "163813.955000",
          "163814.571000",
          "163815.302000",
          "163815.986000",
          "163816.722000",
          "163817.395000",
          "163818.144000",
          "163818.845000",
          "163819.581000",
          "163820.220000",
          "163821.053000",
          "163821.686000",
          "163822.412000",
          "163823.090000",
          "163823.803000",
          "163824.562000",
          "163825.201000",
          "163826.001000",
          "163826.634000",
          "163827.376000",
          "163828.050000",
          "163828.781000",
          "163829.447000",
          "163830.213000",
          "163830.960000",
          "163831.605000",
          "163832.289000",
          "163833.025000",
          "163833.699000",
          "163834.395000",
          "163835.091000",
          "163835.777000",
          "163836.489000",
          "163837.191000",
          "163837.996000",
          "163838.584000",
          "163839.320000",
          "163840.000000",
          "163840.695000",
          "163841.385000",
          "163842.076000",
          "163843.068000",
          "163844.079000",
          "163845.072000",
          "163846.065000",
          "163847.071000"
        ],
        "InstanceCreationTime": [
          "163630.536000",
          "163631.142000",
          "163631.913000",
          "163632.545000",
          "163633.357000",
          "163634.014000",
          "163634.792000",
          "163635.477000",
          "163636.213000",
          "163636.935000",
          "163637.630000",
          "163638.304000",
          "163639.028000",
          "163639.699000",
          "163640.459000",
          "163641.152000",
          "163641.912000",
          "163642.527000",
          "163643.271000",
          "163643.935000",
          "163644.661000",
          "163645.334000",
          "163646.054000",
          "163646.794000",
          "163647.502000",
          "163648.204000",
          "163648.988000",
          "163649.589000",
          "163650.373000",
          "163650.995000",
          "163651.737000",
          "163652.427000",
          "163653.213000",
          "163653.813000",
          "163654.561000",
          "163655.279000",
          "163656.009000",
          "163656.694000",
          "163657.401000",
          "163658.080000",
          "163658.818000",
          "163659.456000",
          "163700.209000",
          "163700.917000",
          "163701.624000",
          "163702.232000",
          "163703.009000",
          "163703.627000",
          "163704.385000",
          "163705.053000",
          "163705.766000",
          "163706.456000",
          "163707.220000",
          "163707.987000",
          "163708.732000",
          "163709.371000",
          "163710.119000",
          "163710.780000",
          "163711.505000",
          "163712.178000",
          "163712.988000",
          "163713.575000",
          "163714.340000",
          "163715.053000",
          "163715.768000",
          "163716.565000",
          "163717.296000",
          "163718.055000",
          "163718.718000",
          "163719.443000",
          "163720.140000",
          "163720.902000",
          "163721.595000",
          "163722.345000",
          "163723.081000",
          "163723.732000",
          "163724.495000",
          "163725.152000",
          "163725.921000",
          "163726.573000",
          "163727.229000",
          "163727.993000",
          "163728.626000",
          "163729.408000",
          "163730.087000",
          "163730.783000",
          "163731.485000",
          "163732.181000",
          "163732.900000",
          "163733.596000",
          "163734.343000",
          "163735.023000",
          "163735.742000",
          "163736.427000",
          "163737.168000",
          "163737.827000",
          "163738.578000",
          "163739.262000",
          "163739.981000",
          "163740.672000",
          "163741.385000",
          "163742.064000",
          "163742.790000",
          "163743.461000",
          "163744.334000",
          "163745.024000",
          "163745.744000",
          "163746.394000",
          "163747.129000",
          "163747.803000",
          "163748.534000",
          "163749.207000",
          "163750.034000",
          "163750.674000",
          "163751.370000",
          "163752.083000",
          "163752.781000",
          "163753.476000",
          "163754.194000",
          "163754.970000",
          "163755.592000",
          "163756.322000",
          "163757.064000",
          "163757.726000",
          "163758.480000",
          "163759.164000",
          "163759.896000",
          "163800.590000",
          "163801.298000",
          "163802.001000",
          "163802.679000",
          "163803.358000",
          "163804.077000",
          "163804.781000",
          "163805.481000",
          "163806.194000",
          "163806.919000",
          "163807.574000",
          "163808.282000",
          "163809.041000",
          "163809.686000",
          "163810.371000",
          "163811.130000",
          "163811.832000",
          "163812.506000",
          "163813.190000",
          "163813.955000",
          "163814.571000",
          "163815.302000",
          "163815.986000",
          "163816.722000",
          "163817.395000",
          "163818.144000",
          "163818.845000",
          "163819.581000",
          "163820.220000",
          "163821.053000",
          "163821.686000",
          "163822.412000",
          "163823.090000",
          "163823.803000",
          "163824.562000",
          "163825.201000",
          "163826.001000",
          "163826.634000",
          "163827.376000",
          "163828.050000",
          "163828.781000",
          "163829.447000",
          "163830.213000",
          "163830.960000",
          "163831.605000",
          "163832.289000",
          "163833.025000",
          "163833.699000",
          "163834.395000",
          "163835.091000",
          "163835.777000",
          "163836.489000",
          "163837.191000",
          "163837.996000",
          "163838.584000",
          "163839.320000",
          "163840.000000",
          "163840.695000",
          "163841.385000",
          "163842.076000",
          "163843.068000",
          "163844.079000",
          "163845.072000",
          "163846.065000",
          "163847.071000"
        ],
        "InstanceNumber": [
          1,
          2,
          3,
          4,
          5,
          6,
          7,
          8,
          9,
          10,
          11,
          12,
          13,
          14,
          15,
          16,
          17,
          18,
          19,
          20,
          21,
          22,
          23,
          24,
          25,
          26,
          27,
          28,
          29,
          30,
          31,
          32,
          33,
          34,
          35,
          36,
          37,
          38,
          39,
          40,
          41,
          42,
          43,
          44,
          45,
          46,
          47,
          48,
          49,
          50,
          51,
          52,
          53,
          54,
          55,
          56,
          57,
          58,
          59,
          60,
          61,
          62,
          63,
          64,
          65,
          66,
          67,
          68,
          69,
          70,
          71,
          72,
          73,
          74,
          75,
          76,
          77,
          78,
          79,
          80,
          81,
          82,
          83,
          84,
          85,
          86,
          87,
          88,
          89,
          90,
          91,
          92,
          93,
          94,
          95,
          96,
          97,
          98,
          99,
          100,
          101,
          102,
          103,
          104,
          105,
          106,
          107,
          108,
          109,
          110,
          111,
          112,
          113,
          114,
          115,
          116,
          117,
          118,
          119,
          120,
          121,
          122,
          123,
          124,
          125,
          126,
          127,
          128,
          129,
          130,
          131,
          132,
          133,
          134,
          135,
          136,
          137,
          138,
          139,
          140,
          141,
          142,
          143,
          144,
          145,
          146,
          147,
          148,
          149,
          150,
          151,
          152,
          153,
          154,
          155,
          156,
          157,
          158,
          159,
          160,
          161,
          162,
          163,
          164,
          165,
          166,
          167,
          168,
          169,
          170,
          171,
          172,
          173,
          174,
          175,
          176,
          177,
          178,
          179,
          180,
          181,
          182,
          183,
          184,
          185,
          186,
          187,
          188,
          189,
          190,
          191,
          192
        ],
        "LargestImagePixelValue": [
          38722,
          38117,
          37216,
          37293,
          36643,
          36808,
          36658,
          36529,
          36564,
          36353,
          36080,
          36740,
          36534,
          35995,
          36589,
          36213,
          36103,
          36896,
          36005,
          36820,
          36833,
          36311,
          36781,
          36642,
          36096,
          36393,
          36399,
          35831,
          36932,
          36566,
          36187,
          36841,
          36656,
          36351,
          36580,
          36124,
          35832,
          37087,
          35795,
          35659,
          35660,
          35945,
          36496,
          36428,
          35624,
          36552,
          36642,
          36242,
          36070,
          36187,
          35810,
          36850,
          36256,
          35904,
          36280,
          36309,
          35784,
          36696,
          35958,
          35601,
          36289,
          36380,
          35742,
          35838,
          35596,
          36057,
          36075,
          35847,
          36077,
          35583,
          35780,
          36013,
          35933,
          36180,
          35934,
          36174,
          35935,
          35878,
          35966,
          36084,
