{
  "AcquisitionMatrixPE": 104,
  "AcquisitionNumber": 1,
  "AcquisitionTime": "13:51:32.490000",
  "BandwidthPerPixelPhaseEncode": 16.578,
  "BaseResolution": 104,
  "BodyPartExamined": "BRAIN",
  "CoilString": "HC2_4_6_7;NC2",
  "ConsistencyInfo": "N4_VE11C_LATEST_20160120",
  "ConversionSoftware": "dcm2niix",
  "ConversionSoftwareVersion": "v1.0.20190902",
  "DerivedVendorReportedEchoSpacing": 0.000580009,
  "DeviceSerialNumber": "166018",
  "DwellTime": 2.1e-06,
  "EchoTime": 0.037,
  "EchoTrainLength": 104,
  "EffectiveEchoSpacing": 0.000580009,
  "FlipAngle": 68,
  "ImageComments": "Unaliased_MB6_PE3_LB",
  "ImageOrientationPatientDICOM": [0.99694, 0.0728965, -0.0282351, -0.0777606, 0.961809, -0.262444],
  "ImageType": [
    "ORIGINAL",
    "PRIMARY",
    "M",
    "MB",
    "ND",
    "MOSAIC"
],
  "ImagingFrequency": 123.191,
  "InPlanePhaseEncodingDirectionDICOM": "COL",
  "InstitutionAddress": "Washington_Place_6_NYC_NYC_US_10003",
  "InstitutionName": "NYU_-_CBI",
  "InstitutionalDepartmentName": "Department",
  "MRAcquisitionType": "2D",
  "MagneticFieldStrength": 3,
  "Manufacturer": "Siemens",
  "ManufacturersModelName": "Prisma",
  "Modality": "MR",
  "MultibandAccelerationFactor": 6,
  "PartialFourier": 1,
  "PatientPosition": "HFS",
  "PercentPhaseFOV": 100,
  "PhaseEncodingDirection": "j",
  "PhaseEncodingSteps": 104,
  "PhaseResolution": 1,
  "PixelBandwidth": 2290,
  "ProcedureStepDescription": "Investigators_Winawer",
  "ProtocolName": "cmrr_mbepi_s6_2mm_66sl_PA_task-prf",
  "PulseSequenceDetails": "%CustomerSeq%_cmrr_mbep2d_bold",
  "ReceiveCoilActiveElements": "HC2,4,6,7;NC2",
  "ReceiveCoilName": "HeadNeck_64",
  "ReconMatrixPE": 104,
  "RepetitionTime": 1,
  "SAR": 0.077943,
  "ScanOptions": "FS",
  "ScanningSequence": "EP",
  "SequenceName": "epfid2d1_104",
  "SequenceVariant": "SK_SS",
  "SeriesDescription": "cmrr_mbepi_s6_2mm_66sl_PA_task-prf",
  "SeriesNumber": 18,
  "ShimSetting": [256, -12581, -8389, 323, 7, -52, -146, -10],
  "SliceThickness": 2,
  "SliceTiming": [0, 0.535, 0.09, 0.6225, 0.1775, 0.7125, 0.2675, 0.8025, 0.355, 0.89, 0.445, 0, 0.535, 0.09, 0.6225, 0.1775, 0.7125, 0.2675, 0.8025, 0.355, 0.89, 0.445, 0, 0.535, 0.09, 0.6225, 0.1775, 0.7125, 0.2675, 0.8025, 0.355, 0.89, 0.445, 0, 0.535, 0.09, 0.6225, 0.1775, 0.7125, 0.2675, 0.8025, 0.355, 0.89, 0.445, 0, 0.535, 0.09, 0.6225, 0.1775, 0.7125, 0.2675, 0.8025, 0.355, 0.89, 0.445, 0, 0.535, 0.09, 0.6225, 0.1775, 0.7125, 0.2675, 0.8025, 0.355, 0.89, 0.445],
  "SoftwareVersions": "syngo_MR_E11",
  "SpacingBetweenSlices": 2,
  "StationName": "AWP166018",
  "TaskName": "prf",
  "TotalReadoutTime": 0.0597409,
  "TxRefAmp": 258.129,
  "WipMemBlock": "8770aa9a-5d9f-47ad-a0bb-c375f9f61401||Sequence: R016 ve11c/master r/8780670; Nov 27 2017 15:05:12 by eja",
  "dcmmeta_affine": [
    [-1.9938795566558838, -0.1555212289094925, -0.016051094979047775, 113.23104858398438],
    [-0.14579299092292786, 1.9236178398132324, -0.5276731252670288, -58.57796096801758],
    [-0.056470271199941635, 0.5248882174491882, 1.9290679693222046, -64.42155456542969],
    [0.0, 0.0, 0.0, 1.0]
],
  "dcmmeta_reorient_transform": [
    [0.0, -1.0, 0.0, 103.0],
    [1.0, 0.0, 0.0, 0.0],
    [0.0, 0.0, 1.0, 0.0],
    [0.0, 0.0, 0.0, 1.0]
],
  "dcmmeta_shape": [104, 104, 66, 192],
  "dcmmeta_slice_dim": 2,
  "dcmmeta_version": 0.6,
  "global": {
    "const": {
      "AccessionNumber": "k58k8281",
      "AcquisitionMatrix": [104, 0, 0, 104],
      "AngioFlag": "N",
      "BitsAllocated": 16,
      "BitsStored": 16,
      "BodyPartExamined": "BRAIN",
      "Columns": 936,
      "EchoNumbers": 1,
      "EchoTime": 37.0,
      "EchoTrainLength": 104,
      "FlipAngle": 68.0,
      "HighBit": 15,
      "ImageOrientationPatient": [0.996939756352, 0.07289649737074, -0.0282351354857, -0.077760612073, 0.96180890561778, -0.2624441203082],
      "ImagePositionPatient": [-861.96941431181, -1000.4295677899, 231.48707645292],
      "ImageType": [
        "ORIGINAL",
        "PRIMARY",
        "M",
        "MB",
        "ND",
        "MOSAIC"
],
      "ImagedNucleus": "1H",
      "ImagingFrequency": 123.190703,
      "InPlanePhaseEncodingDirection": "COL",
      "MRAcquisitionType": "2D",
      "MagneticFieldStrength": 3.0,
      "Manufacturer": "SIEMENS",
      "ManufacturerModelName": "Prisma",
      "Modality": "MR",
      "NumberOfAverages": 1.0,
      "NumberOfPhaseEncodingSteps": 104,
      "PercentPhaseFieldOfView": 100.0,
      "PercentSampling": 100.0,
      "PerformedProcedureStepStartTime": "130943.376000",
      "PhotometricInterpretation": "MONOCHROME2",
      "PixelBandwidth": 2290.0,
      "PixelRepresentation": 0,
      "PixelSpacing": [2.0, 2.0],
      "ProtocolName": "cmrr_mbepi_s6_2mm_66sl_PA_task-prf",
      "RepetitionTime": 1000.0,
      "Rows": 936,
      "SAR": 0.07794298484547,
      "SamplesPerPixel": 1,
      "ScanOptions": "FS",
      "ScanningSequence": "EP",
      "SequenceName": "epfid2d1_104",
      "SequenceVariant": [
        "SK",
        "SS"
],
      "SeriesDescription": "cmrr_mbepi_s6_2mm_66sl_PA_task-prf",
      "SeriesNumber": 18,
      "SeriesTime": "135232.863000",
      "SliceLocation": -47.590512414287,
      "SliceThickness": 2.0,
      "SmallestImagePixelValue": 0,
      "SoftwareVersions": "syngo MR E11",
      "SpacingBetweenSlices": 1.9999999761144,
      "SpecificCharacterSet": "ISO_IR 100",
      "StudyID": "1",
      "StudyTime": "130943.263000",
      "TransmitCoilName": "Body",
      "VariableFlipAngleFlag": "N",
      "WindowCenterWidthExplanation": "Algo1",
      "dBdt": 0.0},
    "slices": {}
  },
  "time": {
    "samples": {
      "AcquisitionNumber": [1, 2, 3, 4, 5, 6, 7, 8, 9, 10, 11, 12, 13, 14, 15, 16, 17, 18, 19, 20, 21, 22, 23, 24, 25, 26, 27, 28, 29, 30, 31, 32, 33, 34, 35, 36, 37, 38, 39, 40, 41, 42, 43, 44, 45, 46, 47, 48, 49, 50, 51, 52, 53, 54, 55, 56, 57, 58, 59, 60, 61, 62, 63, 64, 65, 66, 67, 68, 69, 70, 71, 72, 73, 74, 75, 76, 77, 78, 79, 80, 81, 82, 83, 84, 85, 86, 87, 88, 89, 90, 91, 92, 93, 94, 95, 96, 97, 98, 99, 100, 101, 102, 103, 104, 105, 106, 107, 108, 109, 110, 111, 112, 113, 114, 115, 116, 117, 118, 119, 120, 121, 122, 123, 124, 125, 126, 127, 128, 129, 130, 131, 132, 133, 134, 135, 136, 137, 138, 139, 140, 141, 142, 143, 144, 145, 146, 147, 148, 149, 150, 151, 152, 153, 154, 155, 156, 157, 158, 159, 160, 161, 162, 163, 164, 165, 166, 167, 168, 169, 170, 171, 172, 173, 174, 175, 176, 177, 178, 179, 180, 181, 182, 183, 184, 185, 186, 187, 188, 189, 190, 191, 192],
      "AcquisitionTime": ["135132.490000", "135133.490000", "135134.490000", "135135.490000", "135136.490000", "135137.490000", "135138.490000", "135139.490000", "135140.490000", "135141.490000", "135142.490000", "135143.490000", "135144.490000", "135145.490000", "135146.490000", "135147.490000", "135148.490000", "135149.490000", "135150.490000", "135151.490000", "135152.490000", "135153.490000", "135154.490000", "135155.490000", "135156.490000", "135157.490000", "135158.490000", "135159.490000", "135200.490000", "135201.490000", "135202.490000", "135203.490000", "135204.490000", "135205.490000", "135206.490000", "135207.490000", "135208.490000", "135209.490000", "135210.490000", "135211.490000", "135212.490000", "135213.490000", "135214.490000", "135215.490000", "135216.490000", "135217.490000", "135218.490000", "135219.490000", "135220.490000", "135221.490000", "135222.490000", "135223.490000", "135224.490000", "135225.490000", "135226.490000", "135227.490000", "135228.490000", "135229.490000", "135230.490000", "135231.490000", "135232.490000", "135233.490000", "135234.490000", "135235.490000", "135236.490000", "135237.490000", "135238.490000", "135239.490000", "135240.490000", "135241.490000", "135242.490000", "135243.490000", "135244.490000", "135245.490000", "135246.490000", "135247.490000", "135248.490000", "135249.490000", "135250.490000", "135251.490000", "135252.490000", "135253.490000", "135254.490000", "135255.490000", "135256.490000", "135257.490000", "135258.490000", "135259.490000", "135300.490000", "135301.490000", "135302.490000", "135303.490000", "135304.490000", "135305.490000", "135306.490000", "135307.490000", "135308.490000", "135309.490000", "135310.490000", "135311.490000", "135312.490000", "135313.490000", "135314.490000", "135315.490000", "135316.490000", "135317.490000", "135318.490000", "135319.490000", "135320.490000", "135321.490000", "135322.490000", "135323.490000", "135324.490000", "135325.490000", "135326.490000", "135327.490000", "135328.490000", "135329.490000", "135330.490000", "135331.490000", "135332.490000", "135333.490000", "135334.490000", "135335.490000", "135336.490000", "135337.490000", "135338.490000", "135339.490000", "135340.490000", "135341.490000", "135342.490000", "135343.490000", "135344.490000", "135345.490000", "135346.490000", "135347.490000", "135348.490000", "135349.490000", "135350.490000", "135351.490000", "135352.490000", "135353.490000", "135354.490000", "135355.490000", "135356.490000", "135357.490000", "135358.490000", "135359.490000", "135400.490000", "135401.490000", "135402.490000", "135403.490000", "135404.490000", "135405.490000", "135406.490000", "135407.490000", "135408.490000", "135409.490000", "135410.490000", "135411.490000", "135412.490000", "135413.490000", "135414.490000", "135415.490000", "135416.490000", "135417.490000", "135418.490000", "135419.490000", "135420.490000", "135421.490000", "135422.490000", "135423.490000", "135424.490000", "135425.490000", "135426.490000", "135427.490000", "135428.490000", "135429.490000", "135430.490000", "135431.490000", "135432.490000", "135433.490000", "135434.490000", "135435.490000", "135436.490000", "135437.490000", "135438.490000", "135439.490000", "135440.490000", "135441.490000", "135442.490000", "135443.490000"],
      "ContentTime": ["135232.866000", "135232.869000", "135232.872000", "135232.875000", "135232.878000", "135232.881000", "135232.884000", "135232.887000", "135232.890000", "135232.893000", "135232.895000", "135232.898000", "135232.901000", "135232.904000", "135232.908000", "135232.911000", "135232.914000", "135232.917000", "135232.925000", "135232.928000", "135232.931000", "135232.934000", "135232.936000", "135232.939000", "135232.942000", "135232.945000", "135232.948000", "135232.951000", "135232.954000", "135232.957000", "135232.960000", "135232.963000", "135232.966000", "135232.969000", "135232.972000", "135232.975000", "135232.978000", "135232.981000", "135232.984000", "135232.987000", "135232.990000", "135232.993000", "135232.996000", "135233.000000", "135233.003000", "135233.006000", "135233.008000", "135233.012000", "135233.014000", "135233.026000", "135233.029000", "135233.032000", "135233.035000", "135233.038000", "135233.041000", "135233.044000", "135252.835000", "135252.838000", "135252.841000", "135252.844000", "135252.847000", "135252.850000", "135252.852000", "135252.855000", "135252.858000", "135252.861000", "135252.864000", "135252.867000", "135252.870000", "135252.873000", "135252.876000", "135252.879000", "135252.881000", "135252.884000", "135252.887000", "135252.890000", "135252.893000", "135252.896000", "135252.899000", "135312.836000", "135312.839000", "135312.842000", "135312.845000", "135312.848000", "135312.851000", "135312.854000", "135312.856000", "135312.859000", "135312.871000", "135312.874000", "135312.877000", "135312.880000", "135312.882000", "135312.885000", "135312.888000", "135312.891000", "135312.894000", "135312.897000", "135312.900000", "135332.836000", "135332.839000", "135332.842000", "135332.845000", "135332.848000", "135332.851000", "135332.854000", "135332.857000", "135332.860000", "135332.863000", "135332.865000", "135332.868000", "135332.871000", "135332.874000", "135332.877000", "135332.880000", "135332.883000", "135332.886000", "135332.889000", "135332.891000", "135352.836000", "135352.839000", "135352.842000", "135352.845000", "135352.848000", "135352.851000", "135352.854000", "135352.857000", "135352.869000", "135352.872000", "135352.875000", "135352.877000", "135352.880000", "135352.894000", "135352.897000", "135352.900000", "135352.903000", "135352.907000", "135352.910000", "135352.913000", "135412.835000", "135412.838000", "135412.841000", "135412.844000", "135412.847000", "135412.850000", "135412.853000", "135412.856000", "135412.859000", "135412.861000", "135412.864000", "135412.867000", "135412.870000", "135412.873000", "135412.876000", "135412.879000", "135412.882000", "135412.885000", "135412.888000", "135412.891000", "135432.835000", "135432.838000", "135432.841000", "135432.844000", "135432.847000", "135432.850000", "135432.852000", "135432.855000", "135432.858000", "135432.861000", "135432.864000", "135432.867000", "135432.870000", "135432.873000", "135432.876000", "135432.879000", "135432.881000", "135432.884000", "135432.887000", "135432.890000", "135445.060000", "135445.063000", "135445.066000", "135445.069000", "135445.072000", "135445.075000", "135445.078000", "135445.081000", "135445.084000", "135445.088000", "135445.091000", "135445.094000", "135445.097000"],
      "InstanceCreationTime": ["135232.866000", "135232.869000", "135232.872000", "135232.875000", "135232.878000", "135232.881000", "135232.884000", "135232.887000", "135232.890000", "135232.893000", "135232.895000", "135232.898000", "135232.901000", "135232.904000", "135232.908000", "135232.911000", "135232.914000", "135232.917000", "135232.925000", "135232.928000", "135232.931000", "135232.934000", "135232.936000", "135232.939000", "135232.942000", "135232.945000", "135232.948000", "135232.951000", "135232.954000", "135232.957000", "135232.960000", "135232.963000", "135232.966000", "135232.969000", "135232.972000", "135232.975000", "135232.978000", "135232.981000", "135232.984000", "135232.987000", "135232.990000", "135232.993000", "135232.996000", "135233.000000", "135233.003000", "135233.006000", "135233.008000", "135233.012000", "135233.014000", "135233.026000", "135233.029000", "135233.032000", "135233.035000", "135233.038000", "135233.041000", "135233.044000", "135252.835000", "135252.838000", "135252.841000", "135252.844000", "135252.847000", "135252.850000", "135252.852000", "135252.855000", "135252.858000", "135252.861000", "135252.864000", "135252.867000", "135252.870000", "135252.873000", "135252.876000", "135252.879000", "135252.881000", "135252.884000", "135252.887000", "135252.890000", "135252.893000", "135252.896000", "135252.899000", "135312.836000", "135312.839000", "135312.842000", "135312.845000", "135312.848000", "135312.851000", "135312.854000", "135312.856000", "135312.859000", "135312.871000", "135312.874000", "135312.877000", "135312.880000", "135312.882000", "135312.885000", "135312.888000", "135312.891000", "135312.894000", "135312.897000", "135312.900000", "135332.836000", "135332.839000", "135332.842000", "135332.845000", "135332.848000", "135332.851000", "135332.854000", "135332.857000", "135332.860000", "135332.863000", "135332.865000", "135332.868000", "135332.871000", "135332.874000", "135332.877000", "135332.880000", "135332.883000", "135332.886000", "135332.889000", "135332.891000", "135352.836000", "135352.839000", "135352.842000", "135352.845000", "135352.848000", "135352.851000", "135352.854000", "135352.857000", "135352.869000", "135352.872000", "135352.875000", "135352.877000", "135352.880000", "135352.894000", "135352.897000", "135352.900000", "135352.903000", "135352.907000", "135352.910000", "135352.913000", "135412.835000", "135412.838000", "135412.841000", "135412.844000", "135412.847000", "135412.850000", "135412.853000", "135412.856000", "135412.859000", "135412.861000", "135412.864000", "135412.867000", "135412.870000", "135412.873000", "135412.876000", "135412.879000", "135412.882000", "135412.885000", "135412.888000", "135412.891000", "135432.835000", "135432.838000", "135432.841000", "135432.844000", "135432.847000", "135432.850000", "135432.852000", "135432.855000", "135432.858000", "135432.861000", "135432.864000", "135432.867000", "135432.870000", "135432.873000", "135432.876000", "135432.879000", "135432.881000", "135432.884000", "135432.887000", "135432.890000", "135445.060000", "135445.063000", "135445.066000", "135445.069000", "135445.072000", "135445.075000", "135445.078000", "135445.081000", "135445.084000", "135445.088000", "135445.091000", "135445.094000", "135445.097000"],
      "InstanceNumber": [1, 2, 3, 4, 5, 6, 7, 8, 9, 10, 11, 12, 13, 14, 15, 16, 17, 18, 19, 20, 21, 22, 23, 24, 25, 26, 27, 28, 29, 30, 31, 32, 33, 34, 35, 36, 37, 38, 39, 40, 41, 42, 43, 44, 45, 46, 47, 48, 49, 50, 51, 52, 53, 54, 55, 56, 57, 58, 59, 60, 61, 62, 63, 64, 65, 66, 67, 68, 69, 70, 71, 72, 73, 74, 75, 76, 77, 78, 79, 80, 81, 82, 83, 84, 85, 86, 87, 88, 89, 90, 91, 92, 93, 94, 95, 96, 97, 98, 99, 100, 101, 102, 103, 104, 105, 106, 107, 108, 109, 110, 111, 112, 113, 114, 115, 116, 117, 118, 119, 120, 121, 122, 123, 124, 125, 126, 127, 128, 129, 130, 131, 132, 133, 134, 135, 136, 137, 138, 139, 140, 141, 142, 143, 144, 145, 146, 147, 148, 149, 150, 151, 152, 153, 154, 155, 156, 157, 158, 159, 160, 161, 162, 163, 164, 165, 166, 167, 168, 169, 170, 171, 172, 173, 174, 175, 176, 177, 178, 179, 180, 181, 182, 183, 184, 185, 186, 187, 188, 189, 190, 191, 192],
      "LargestImagePixelValue": [34717, 33580, 33666, 33389, 32970, 33013, 33414, 33030, 33379, 33628, 32880, 33167, 32889, 33579, 32892, 33629, 33059, 32915, 32962, 33564, 33245, 33383, 33344, 33427, 34107, 33925, 33717, 33365, 33892, 33834, 33699, 33310, 34048, 33718, 33548, 34179, 34074, 33813, 34020, 33434, 34414, 34252, 33457, 34188, 33926, 33698, 34084, 34010, 33305, 33725, 34181, 33898, 34055, 33802, 33796, 33938, 34158, 33666, 34451, 34090, 33615, 34107, 34421, 34537, 33799, 34124, 34304, 34250, 33773, 34304, 34155, 34248, 34244, 33827, 34032, 33821, 34071, 34267, 33367, 33677, 33901, 34103, 34204, 33979, 34153, 34160, 34139, 33980, 34214, 34265, 34553, 34225, 34533, 34015, 34519, 34475, 33780, 33920, 34234, 33944, 33904, 34300, 34089, 34612, 34152, 34533, 34395, 33951, 33561, 34236, 33623, 34214, 34239, 34736, 34155, 34403, 34544, 34247, 34286, 33479, 33966, 33963, 34187, 34635, 34129, 33746, 33907, 34059, 33679, 33706, 33909, 34069, 33796, 34087, 34047, 34036, 33782, 34228, 34169, 33465, 34515, 34253, 33912, 33936, 34671, 34435, 33986, 33877, 34008, 33897, 34065, 34360, 33999, 33862, 33650, 34256, 34232, 34008, 34377, 34495, 34157, 34228, 33713, 34138, 34336, 34911, 34238, 33856, 34465, 34564, 34334, 33802, 34000, 34103, 33821, 33961, 34092, 33812, 34275, 34014, 33646, 34212, 33741, 34297, 34291, 34445, 34533, 33780, 34746, 34128, 34296, 34132],
      "WindowCenter": [8895.0, 8863.0, 8860.0, 8851.0, 8852.0, 8849.0, 8838.0, 8823.0, 8838.0, 8853.0, 8849.0, 8857.0, 8843.0, 8846.0, 8831.0, 8839.0, 8841.0, 8843.0, 8850.0, 8854.0, 8839.0, 8828.0, 8829.0, 8838.0, 8848.0, 8852.0, 8846.0, 8831.0, 8842.0, 8825.0, 8826.0, 8827.0, 8832.0, 8825.0, 8825.0, 8833.0, 8833.0, 8832.0, 8833.0, 8820.0, 8838.0, 8831.0, 8823.0, 8830.0, 8824.0, 8818.0, 8831.0, 8832.0, 8827.0, 8832.0, 8830.0, 8822.0, 8823.0, 8824.0, 8831.0, 8823.0, 8830.0, 8824.0, 8843.0, 8838.0, 8834.0, 8838.0, 8838.0, 8836.0, 8824.0, 8830.0, 8838.0, 8840.0, 8842.0, 8839.0, 8839.0, 8832.0, 8832.0, 8824.0, 8825.0, 8840.0, 8851.0, 8867.0, 8856.0, 8854.0, 8842.0, 8839.0, 8822.0, 8814.0, 8819.0, 8819.0, 8821.0, 8823.0, 8839.0, 8840.0, 8848.0, 8841.0, 8838.0, 8824.0, 8837.0, 8838.0, 8840.0, 8851.0, 8860.0, 8859.0, 8851.0, 8848.0, 8832.0, 8827.0, 8811.0, 8825.0, 8829.0, 8831.0, 8834.0, 8841.0, 8836.0, 8839.0, 8839.0, 8837.0, 8822.0, 8822.0, 8830.0, 8838.0, 8839.0, 8831.0, 8835.0, 8840.0, 8840.0, 8848.0, 8838.0, 8815.0, 8814.0, 8815.0, 8815.0, 8823.0, 8832.0, 8832.0, 8830.0, 8830.0, 8829.0, 8824.0, 8824.0, 8821.0, 8822.0, 8813.0, 8818.0, 8819.0, 8821.0, 8822.0, 8836.0, 8826.0, 8812.0, 8805.0, 8805.0, 8812.0, 8812.0, 8812.0, 8813.0, 8815.0, 8816.0, 8820.0, 8820.0, 8814.0, 8822.0, 8837.0, 8841.0, 8850.0, 8846.0, 8859.0, 8861.0, 8867.0, 8859.0, 8842.0, 8836.0, 8818.0, 8802.0, 8811.0, 8830.0, 8849.0, 8850.0, 8840.0, 8827.0, 8821.0, 8829.0, 8820.0, 8821.0, 8840.0, 8837.0, 8842.0, 8841.0, 8830.0, 8826.0, 8813.0, 8814.0, 8802.0, 8802.0, 8810.0],
      "WindowWidth": [19075.0, 19000.0, 18986.0, 18966.0, 18966.0, 18956.0, 18929.0, 18902.0, 18928.0, 18956.0, 18955.0, 18971.0, 18944.0, 18942.0, 18918.0, 18933.0, 18941.0, 18947.0, 18962.0, 18965.0, 18934.0, 18908.0, 18912.0, 18929.0, 18945.0, 18958.0, 18948.0, 18920.0, 18932.0, 18899.0, 18904.0, 18904.0, 18909.0, 18897.0, 18898.0, 18911.0, 18915.0, 18912.0, 18917.0, 18897.0, 18922.0, 18908.0, 18892.0, 18902.0, 18894.0, 18884.0, 18907.0, 18910.0, 18905.0, 18907.0, 18899.0, 18886.0, 18891.0, 18894.0, 18905.0, 18889.0, 18901.0, 18894.0, 18921.0, 18916.0, 18915.0, 18918.0, 18916.0, 18911.0, 18896.0, 18904.0, 18922.0, 18930.0, 18936.0, 18924.0, 18922.0, 18909.0, 18912.0, 18895.0, 18900.0, 18930.0, 18955.0, 18985.0, 18970.0, 18963.0, 18932.0, 18919.0, 18888.0, 18873.0, 18880.0, 18881.0, 18888.0, 18898.0, 18930.0, 18931.0, 18945.0, 18930.0, 18918.0, 18895.0, 18916.0, 18917.0, 18928.0, 18953.0, 18970.0, 18965.0, 18950.0, 18940.0, 18906.0, 18891.0, 18862.0, 18889.0, 18902.0, 18910.0, 18919.0, 18932.0, 18924.0, 18927.0, 18925.0, 18919.0, 18893.0, 18892.0, 18908.0, 18922.0, 18925.0, 18915.0, 18921.0, 18925.0, 18924.0, 18938.0, 18918.0, 18876.0, 18870.0, 18872.0, 18872.0, 18891.0, 18909.0, 18909.0, 18902.0, 18902.0, 18898.0, 18890.0, 18891.0, 18884.0, 18884.0, 18867.0, 18873.0, 18878.0, 18882.0, 18885.0, 18907.0, 18886.0, 18859.0, 18847.0, 18852.0, 18863.0, 18862.0, 18864.0, 18868.0, 18876.0, 18879.0, 18884.0, 18882.0, 18872.0, 18889.0, 18920.0, 18936.0, 18954.0, 18951.0, 18973.0, 18978.0, 18985.0, 18964.0, 18929.0, 18904.0, 18864.0, 18836.0, 18860.0, 18902.0, 18942.0, 18944.0, 18917.0, 18886.0, 18878.0, 18899.0, 18881.0, 18884.0, 18925.0, 18924.0, 18931.0, 18926.0, 18900.0, 18886.0, 18863.0, 18859.0, 18841.0, 18842.0, 18858.0]
    },
    "slices": {}
  },
  "NumberOfVolumes": 192
}