{
  "AcquisitionMatrixPE": 104,
  "AcquisitionNumber": 1,
  "AcquisitionTime": "13:39:4.440000",
  "BandwidthPerPixelPhaseEncode": 16.578,
  "BaseResolution": 104,
  "BodyPartExamined": "BRAIN",
  "CoilString": "HC2_4_6_7;NC2",
  "ConsistencyInfo": "N4_VE11C_LATEST_20160120",
  "ConversionSoftware": "dcm2niix",
  "ConversionSoftwareVersion": "v1.0.20190902",
  "DerivedVendorReportedEchoSpacing": 0.000580009,
  "DeviceSerialNumber": "166018",
  "DwellTime": 2.1e-06,
  "EchoTime": 0.037,
  "EchoTrainLength": 104,
  "EffectiveEchoSpacing": 0.000580009,
  "FlipAngle": 68,
  "ImageComments": "Unaliased_MB6_PE3_LB",
  "ImageOrientationPatientDICOM": [0.99694, 0.0728965, -0.0282351, -0.0777606, 0.961809, -0.262444],
  "ImageType": [
    "ORIGINAL",
    "PRIMARY",
    "M",
    "MB",
    "ND",
    "MOSAIC"
],
  "ImagingFrequency": 123.191,
  "InPlanePhaseEncodingDirectionDICOM": "COL",
  "InstitutionAddress": "Washington_Place_6_NYC_NYC_US_10003",
  "InstitutionName": "NYU_-_CBI",
  "InstitutionalDepartmentName": "Department",
  "MRAcquisitionType": "2D",
  "MagneticFieldStrength": 3,
  "Manufacturer": "Siemens",
  "ManufacturersModelName": "Prisma",
  "Modality": "MR",
  "MultibandAccelerationFactor": 6,
  "PartialFourier": 1,
  "PatientPosition": "HFS",
  "PercentPhaseFOV": 100,
  "PhaseEncodingDirection": "j",
  "PhaseEncodingSteps": 104,
  "PhaseResolution": 1,
  "PixelBandwidth": 2290,
  "ProcedureStepDescription": "Investigators_Winawer",
  "ProtocolName": "cmrr_mbepi_s6_2mm_66sl_PA_task-prf",
  "PulseSequenceDetails": "%CustomerSeq%_cmrr_mbep2d_bold",
  "ReceiveCoilActiveElements": "HC2,4,6,7;NC2",
  "ReceiveCoilName": "HeadNeck_64",
  "ReconMatrixPE": 104,
  "RepetitionTime": 1,
  "SAR": 0.077943,
  "ScanOptions": "FS",
  "ScanningSequence": "EP",
  "SequenceName": "epfid2d1_104",
  "SequenceVariant": "SK_SS",
  "SeriesDescription": "cmrr_mbepi_s6_2mm_66sl_PA_task-prf",
  "SeriesNumber": 12,
  "ShimSetting": [256, -12581, -8389, 323, 7, -52, -146, -10],
  "SliceThickness": 2,
  "SliceTiming": [0, 0.535, 0.09, 0.625, 0.18, 0.7125, 0.2675, 0.8025, 0.3575, 0.8925, 0.4475, 0, 0.535, 0.09, 0.625, 0.18, 0.7125, 0.2675, 0.8025, 0.3575, 0.8925, 0.4475, 0, 0.535, 0.09, 0.625, 0.18, 0.7125, 0.2675, 0.8025, 0.3575, 0.8925, 0.4475, 0, 0.535, 0.09, 0.625, 0.18, 0.7125, 0.2675, 0.8025, 0.3575, 0.8925, 0.4475, 0, 0.535, 0.09, 0.625, 0.18, 0.7125, 0.2675, 0.8025, 0.3575, 0.8925, 0.4475, 0, 0.535, 0.09, 0.625, 0.18, 0.7125, 0.2675, 0.8025, 0.3575, 0.8925, 0.4475],
  "SoftwareVersions": "syngo_MR_E11",
  "SpacingBetweenSlices": 2,
  "StationName": "AWP166018",
  "TaskName": "prf",
  "TotalReadoutTime": 0.0597409,
  "TxRefAmp": 258.129,
  "WipMemBlock": "8770aa9a-5d9f-47ad-a0bb-c375f9f61401||Sequence: R016 ve11c/master r/8780670; Nov 27 2017 15:05:12 by eja",
  "dcmmeta_affine": [
    [-1.9938795566558838, -0.1555212289094925, -0.016051094979047775, 113.23104858398438],
    [-0.14579299092292786, 1.9236178398132324, -0.5276731252670288, -58.57796096801758],
    [-0.056470271199941635, 0.5248882174491882, 1.9290679693222046, -64.42155456542969],
    [0.0, 0.0, 0.0, 1.0]
],
  "dcmmeta_reorient_transform": [
    [0.0, -1.0, 0.0, 103.0],
    [1.0, 0.0, 0.0, 0.0],
    [0.0, 0.0, 1.0, 0.0],
    [0.0, 0.0, 0.0, 1.0]
],
  "dcmmeta_shape": [104, 104, 66, 192],
  "dcmmeta_slice_dim": 2,
  "dcmmeta_version": 0.6,
  "global": {
    "const": {
      "AccessionNumber": "k58k8281",
      "AcquisitionMatrix": [104, 0, 0, 104],
      "AngioFlag": "N",
      "BitsAllocated": 16,
      "BitsStored": 16,
      "BodyPartExamined": "BRAIN",
      "Columns": 936,
      "EchoNumbers": 1,
      "EchoTime": 37.0,
      "EchoTrainLength": 104,
      "FlipAngle": 68.0,
      "HighBit": 15,
      "ImageOrientationPatient": [0.996939756352, 0.07289649737074, -0.0282351354857, -0.077760612073, 0.96180890561778, -0.2624441203082],
      "ImagePositionPatient": [-861.96941431181, -1000.4295677899, 231.48707645292],
      "ImageType": [
        "ORIGINAL",
        "PRIMARY",
        "M",
        "MB",
        "ND",
        "MOSAIC"
],
      "ImagedNucleus": "1H",
      "ImagingFrequency": 123.190703,
      "InPlanePhaseEncodingDirection": "COL",
      "MRAcquisitionType": "2D",
      "MagneticFieldStrength": 3.0,
      "Manufacturer": "SIEMENS",
      "ManufacturerModelName": "Prisma",
      "Modality": "MR",
      "NumberOfAverages": 1.0,
      "NumberOfPhaseEncodingSteps": 104,
      "PercentPhaseFieldOfView": 100.0,
      "PercentSampling": 100.0,
      "PerformedProcedureStepStartTime": "130943.376000",
      "PhotometricInterpretation": "MONOCHROME2",
      "PixelBandwidth": 2290.0,
      "PixelRepresentation": 0,
      "PixelSpacing": [2.0, 2.0],
      "ProtocolName": "cmrr_mbepi_s6_2mm_66sl_PA_task-prf",
      "RepetitionTime": 1000.0,
      "Rows": 936,
      "SAR": 0.07794298484547,
      "SamplesPerPixel": 1,
      "ScanOptions": "FS",
      "ScanningSequence": "EP",
      "SequenceName": "epfid2d1_104",
      "SequenceVariant": [
        "SK",
        "SS"
],
      "SeriesDescription": "cmrr_mbepi_s6_2mm_66sl_PA_task-prf",
      "SeriesNumber": 12,
      "SeriesTime": "133952.866000",
      "SliceLocation": -47.590512414287,
      "SliceThickness": 2.0,
      "SmallestImagePixelValue": 0,
      "SoftwareVersions": "syngo MR E11",
      "SpacingBetweenSlices": 1.9999999761144,
      "SpecificCharacterSet": "ISO_IR 100",
      "StudyID": "1",
      "StudyTime": "130943.263000",
      "TransmitCoilName": "Body",
      "VariableFlipAngleFlag": "N",
      "WindowCenterWidthExplanation": "Algo1",
      "dBdt": 0.0},
    "slices": {}
  },
  "time": {
    "samples": {
      "AcquisitionNumber": [1, 2, 3, 4, 5, 6, 7, 8, 9, 10, 11, 12, 13, 14, 15, 16, 17, 18, 19, 20, 21, 22, 23, 24, 25, 26, 27, 28, 29, 30, 31, 32, 33, 34, 35, 36, 37, 38, 39, 40, 41, 42, 43, 44, 45, 46, 47, 48, 49, 50, 51, 52, 53, 54, 55, 56, 57, 58, 59, 60, 61, 62, 63, 64, 65, 66, 67, 68, 69, 70, 71, 72, 73, 74, 75, 76, 77, 78, 79, 80, 81, 82, 83, 84, 85, 86, 87, 88, 89, 90, 91, 92, 93, 94, 95, 96, 97, 98, 99, 100, 101, 102, 103, 104, 105, 106, 107, 108, 109, 110, 111, 112, 113, 114, 115, 116, 117, 118, 119, 120, 121, 122, 123, 124, 125, 126, 127, 128, 129, 130, 131, 132, 133, 134, 135, 136, 137, 138, 139, 140, 141, 142, 143, 144, 145, 146, 147, 148, 149, 150, 151, 152, 153, 154, 155, 156, 157, 158, 159, 160, 161, 162, 163, 164, 165, 166, 167, 168, 169, 170, 171, 172, 173, 174, 175, 176, 177, 178, 179, 180, 181, 182, 183, 184, 185, 186, 187, 188, 189, 190, 191, 192],
      "AcquisitionTime": ["133904.440000", "133905.440000", "133906.440000", "133907.440000", "133908.440000", "133909.440000", "133910.440000", "133911.440000", "133912.440000", "133913.440000", "133914.440000", "133915.440000", "133916.440000", "133917.440000", "133918.440000", "133919.440000", "133920.440000", "133921.440000", "133922.440000", "133923.440000", "133924.440000", "133925.440000", "133926.440000", "133927.440000", "133928.440000", "133929.440000", "133930.440000", "133931.440000", "133932.440000", "133933.440000", "133934.440000", "133935.440000", "133936.440000", "133937.440000", "133938.440000", "133939.440000", "133940.440000", "133941.440000", "133942.440000", "133943.440000", "133944.440000", "133945.440000", "133946.440000", "133947.440000", "133948.440000", "133949.440000", "133950.440000", "133951.440000", "133952.440000", "133953.440000", "133954.440000", "133955.440000", "133956.440000", "133957.440000", "133958.440000", "133959.440000", "134000.440000", "134001.440000", "134002.440000", "134003.440000", "134004.440000", "134005.440000", "134006.440000", "134007.440000", "134008.440000", "134009.440000", "134010.440000", "134011.440000", "134012.440000", "134013.440000", "134014.440000", "134015.440000", "134016.440000", "134017.440000", "134018.440000", "134019.440000", "134020.440000", "134021.440000", "134022.440000", "134023.440000", "134024.440000", "134025.440000", "134026.440000", "134027.440000", "134028.440000", "134029.440000", "134030.440000", "134031.440000", "134032.440000", "134033.440000", "134034.440000", "134035.440000", "134036.440000", "134037.440000", "134038.440000", "134039.440000", "134040.440000", "134041.440000", "134042.440000", "134043.440000", "134044.440000", "134045.440000", "134046.440000", "134047.440000", "134048.440000", "134049.440000", "134050.440000", "134051.440000", "134052.440000", "134053.440000", "134054.440000", "134055.440000", "134056.440000", "134057.440000", "134058.440000", "134059.440000", "134100.440000", "134101.440000", "134102.440000", "134103.440000", "134104.440000", "134105.440000", "134106.440000", "134107.440000", "134108.440000", "134109.440000", "134110.440000", "134111.440000", "134112.440000", "134113.440000", "134114.440000", "134115.440000", "134116.440000", "134117.440000", "134118.440000", "134119.440000", "134120.440000", "134121.440000", "134122.440000", "134123.440000", "134124.440000", "134125.440000", "134126.440000", "134127.440000", "134128.440000", "134129.440000", "134130.440000", "134131.440000", "134132.440000", "134133.440000", "134134.440000", "134135.440000", "134136.440000", "134137.440000", "134138.440000", "134139.440000", "134140.440000", "134141.440000", "134142.440000", "134143.440000", "134144.440000", "134145.440000", "134146.440000", "134147.440000", "134148.440000", "134149.440000", "134150.440000", "134151.440000", "134152.440000", "134153.440000", "134154.440000", "134155.440000", "134156.440000", "134157.440000", "134158.440000", "134159.440000", "134200.440000", "134201.440000", "134202.440000", "134203.440000", "134204.440000", "134205.440000", "134206.440000", "134207.440000", "134208.440000", "134209.440000", "134210.440000", "134211.440000", "134212.440000", "134213.440000", "134214.440000", "134215.440000"],
      "ContentTime": ["133952.869000", "133952.873000", "133952.876000", "133952.878000", "133952.881000", "133952.884000", "133952.887000", "133952.890000", "133952.899000", "133952.902000", "133952.905000", "133952.908000", "133952.910000", "133952.913000", "133952.916000", "133952.919000", "133952.922000", "133952.925000", "133952.928000", "133952.931000", "133952.933000", "133952.936000", "133952.939000", "133952.942000", "133952.945000", "133952.948000", "133952.951000", "133952.954000", "133952.957000", "133952.960000", "133952.962000", "133952.965000", "133952.968000", "134012.835000", "134012.838000", "134012.841000", "134012.844000", "134012.847000", "134012.850000", "134012.852000", "134012.855000", "134012.858000", "134012.861000", "134012.864000", "134012.867000", "134012.873000", "134012.876000", "134012.879000", "134012.882000", "134012.884000", "134012.887000", "134012.890000", "134012.893000", "134012.896000", "134012.904000", "134012.907000", "134012.909000", "134012.918000", "134012.921000", "134012.924000", "134012.927000", "134012.930000", "134012.933000", "134012.936000", "134012.938000", "134012.941000", "134012.944000", "134032.836000", "134032.840000", "134032.843000", "134032.845000", "134032.848000", "134032.851000", "134032.854000", "134032.857000", "134032.860000", "134032.863000", "134032.866000", "134032.869000", "134032.871000", "134032.874000", "134032.893000", "134032.896000", "134032.899000", "134032.902000", "134032.905000", "134032.908000", "134052.835000", "134052.838000", "134052.841000", "134052.844000", "134052.847000", "134052.849000", "134052.852000", "134052.855000", "134052.858000", "134052.869000", "134052.871000", "134052.874000", "134052.877000", "134052.880000", "134052.883000", "134052.886000", "134052.889000", "134052.892000", "134052.895000", "134052.897000", "134112.835000", "134112.838000", "134112.841000", "134112.844000", "134112.847000", "134112.850000", "134112.852000", "134112.855000", "134112.858000", "134112.861000", "134112.864000", "134112.867000", "134112.870000", "134112.873000", "134112.876000", "134112.879000", "134112.881000", "134112.884000", "134112.887000", "134112.890000", "134132.835000", "134132.838000", "134132.841000", "134132.844000", "134132.847000", "134132.850000", "134132.852000", "134132.855000", "134132.858000", "134132.861000", "134132.864000", "134132.867000", "134132.870000", "134132.873000", "134132.876000", "134132.879000", "134132.882000", "134132.884000", "134132.887000", "134132.890000", "134152.836000", "134152.839000", "134152.842000", "134152.845000", "134152.848000", "134152.851000", "134152.853000", "134152.856000", "134152.859000", "134152.862000", "134152.865000", "134152.868000", "134152.871000", "134152.874000", "134152.877000", "134152.880000", "134152.882000", "134152.885000", "134152.888000", "134152.891000", "134212.836000", "134212.839000", "134212.851000", "134212.854000", "134212.857000", "134212.859000", "134212.862000", "134212.865000", "134212.868000", "134212.871000", "134212.874000", "134212.877000", "134212.880000", "134212.883000", "134212.885000", "134212.888000", "134212.891000", "134212.894000", "134212.897000", "134212.900000", "134217.474000", "134217.478000", "134217.480000", "134217.483000", "134217.486000"],
      "InstanceCreationTime": ["133952.869000", "133952.873000", "133952.876000", "133952.878000", "133952.881000", "133952.884000", "133952.887000", "133952.890000", "133952.899000", "133952.902000", "133952.905000", "133952.908000", "133952.910000", "133952.913000", "133952.916000", "133952.919000", "133952.922000", "133952.925000", "133952.928000", "133952.931000", "133952.933000", "133952.936000", "133952.939000", "133952.942000", "133952.945000", "133952.948000", "133952.951000", "133952.954000", "133952.957000", "133952.960000", "133952.962000", "133952.965000", "133952.968000", "134012.835000", "134012.838000", "134012.841000", "134012.844000", "134012.847000", "134012.850000", "134012.852000", "134012.855000", "134012.858000", "134012.861000", "134012.864000", "134012.867000", "134012.873000", "134012.876000", "134012.879000", "134012.882000", "134012.884000", "134012.887000", "134012.890000", "134012.893000", "134012.896000", "134012.904000", "134012.907000", "134012.909000", "134012.918000", "134012.921000", "134012.924000", "134012.927000", "134012.930000", "134012.933000", "134012.936000", "134012.938000", "134012.941000", "134012.944000", "134032.836000", "134032.840000", "134032.843000", "134032.845000", "134032.848000", "134032.851000", "134032.854000", "134032.857000", "134032.860000", "134032.863000", "134032.866000", "134032.869000", "134032.871000", "134032.874000", "134032.893000", "134032.896000", "134032.899000", "134032.902000", "134032.905000", "134032.908000", "134052.835000", "134052.838000", "134052.841000", "134052.844000", "134052.847000", "134052.849000", "134052.852000", "134052.855000", "134052.858000", "134052.869000", "134052.871000", "134052.874000", "134052.877000", "134052.880000", "134052.883000", "134052.886000", "134052.889000", "134052.892000", "134052.895000", "134052.897000", "134112.835000", "134112.838000", "134112.841000", "134112.844000", "134112.847000", "134112.850000", "134112.852000", "134112.855000", "134112.858000", "134112.861000", "134112.864000", "134112.867000", "134112.870000", "134112.873000", "134112.876000", "134112.879000", "134112.881000", "134112.884000", "134112.887000", "134112.890000", "134132.835000", "134132.838000", "134132.841000", "134132.844000", "134132.847000", "134132.850000", "134132.852000", "134132.855000", "134132.858000", "134132.861000", "134132.864000", "134132.867000", "134132.870000", "134132.873000", "134132.876000", "134132.879000", "134132.882000", "134132.884000", "134132.887000", "134132.890000", "134152.836000", "134152.839000", "134152.842000", "134152.845000", "134152.848000", "134152.851000", "134152.853000", "134152.856000", "134152.859000", "134152.862000", "134152.865000", "134152.868000", "134152.871000", "134152.874000", "134152.877000", "134152.880000", "134152.882000", "134152.885000", "134152.888000", "134152.891000", "134212.836000", "134212.839000", "134212.851000", "134212.854000", "134212.857000", "134212.859000", "134212.862000", "134212.865000", "134212.868000", "134212.871000", "134212.874000", "134212.877000", "134212.880000", "134212.883000", "134212.885000", "134212.888000", "134212.891000", "134212.894000", "134212.897000", "134212.900000", "134217.474000", "134217.478000", "134217.480000", "134217.483000", "134217.486000"],
      "InstanceNumber": [1, 2, 3, 4, 5, 6, 7, 8, 9, 10, 11, 12, 13, 14, 15, 16, 17, 18, 19, 20, 21, 22, 23, 24, 25, 26, 27, 28, 29, 30, 31, 32, 33, 34, 35, 36, 37, 38, 39, 40, 41, 42, 43, 44, 45, 46, 47, 48, 49, 50, 51, 52, 53, 54, 55, 56, 57, 58, 59, 60, 61, 62, 63, 64, 65, 66, 67, 68, 69, 70, 71, 72, 73, 74, 75, 76, 77, 78, 79, 80, 81, 82, 83, 84, 85, 86, 87, 88, 89, 90, 91, 92, 93, 94, 95, 96, 97, 98, 99, 100, 101, 102, 103, 104, 105, 106, 107, 108, 109, 110, 111, 112, 113, 114, 115, 116, 117, 118, 119, 120, 121, 122, 123, 124, 125, 126, 127, 128, 129, 130, 131, 132, 133, 134, 135, 136, 137, 138, 139, 140, 141, 142, 143, 144, 145, 146, 147, 148, 149, 150, 151, 152, 153, 154, 155, 156, 157, 158, 159, 160, 161, 162, 163, 164, 165, 166, 167, 168, 169, 170, 171, 172, 173, 174, 175, 176, 177, 178, 179, 180, 181, 182, 183, 184, 185, 186, 187, 188, 189, 190, 191, 192],
      "LargestImagePixelValue": [32195, 31651, 31177, 31386, 31278, 31013, 30624, 30736, 31211, 30718, 31339, 30912, 30690, 31033, 31132, 30810, 31159, 30784, 31225, 31124, 30945, 31050, 31484, 31144, 30836, 30944, 31311, 31013, 31019, 31012, 31378, 30780, 31299, 31400, 31413, 31079, 31634, 31188, 31156, 30825, 30925, 31317, 31306, 30883, 30955, 30876, 30667, 30878, 30858, 30839, 31304, 30491, 31035, 30975, 31116, 31044, 30738, 30751, 30707, 30512, 30698, 31097, 30640, 30841, 31210, 30600, 30911, 31087, 30812, 31147, 31130, 31336, 30270, 30947, 30640, 31177, 30956, 30642, 31000, 30791, 30955, 30664, 31065, 30913, 30796, 31104, 31147, 31113, 30677, 30900, 31186, 30834, 30780, 30831, 31247, 30982, 30839, 30994, 30839, 30834, 30740, 30965, 30856, 30777, 31245, 31066, 31037, 30892, 30777, 30931, 31154, 30915, 30717, 30938, 31406, 31048, 30815, 31276, 31417, 31346, 30957, 31001, 31068, 30885, 30822, 31146, 31025, 30987, 31440, 31395, 31019, 30733, 30735, 30608, 31247, 31715, 31169, 30847, 31101, 30815, 30812, 31066, 31215, 31183, 31204, 30808, 30706, 30968, 31182, 30864, 31057, 31050, 31020, 31033, 30932, 30865, 30606, 31008, 30820, 30944, 30982, 31030, 30788, 31126, 31206, 31360, 31260, 31315, 31526, 31313, 30913, 31385, 31610, 31108, 31455, 31202, 31182, 31576, 30979, 31604, 31185, 31182, 31317, 31267, 31065, 30770, 32002, 31255, 31343, 32094, 31592, 31468],
      "WindowCenter": [8769.0, 8740.0, 8741.0, 8758.0, 8764.0, 8749.0, 8731.0, 8721.0, 8726.0, 8721.0, 8736.0, 8738.0, 8725.0, 8729.0, 8730.0, 8724.0, 8731.0, 8725.0, 8747.0, 8741.0, 8751.0, 8765.0, 8766.0, 8760.0, 8752.0, 8750.0, 8756.0, 8748.0, 8748.0, 8748.0, 8749.0, 8733.0, 8746.0, 8746.0, 8746.0, 8740.0, 8762.0, 8759.0, 8768.0, 8761.0, 8759.0, 8756.0, 8737.0, 8713.0, 8719.0, 8721.0, 8732.0, 8740.0, 8731.0, 8714.0, 8725.0, 8704.0, 8727.0, 8737.0, 8746.0, 8747.0, 8739.0, 8731.0, 8729.0, 8714.0, 8720.0, 8728.0, 8721.0, 8739.0, 8764.0, 8762.0, 8766.0, 8758.0, 8741.0, 8737.0, 8721.0, 8720.0, 8703.0, 8711.0, 8720.0, 8731.0, 8737.0, 8740.0, 8740.0, 8733.0, 8731.0, 8730.0, 8737.0, 8729.0, 8731.0, 8731.0, 8732.0, 8740.0, 8742.0, 8749.0, 8747.0, 8724.0, 8724.0, 8734.0, 8749.0, 8745.0, 8735.0, 8738.0, 8723.0, 8723.0, 8733.0, 8739.0, 8734.0, 8726.0, 8737.0, 8724.0, 8731.0, 8740.0, 8736.0, 8758.0, 8761.0, 8760.0, 8744.0, 8735.0, 8739.0, 8732.0, 8733.0, 8756.0, 8760.0, 8759.0, 8752.0, 8751.0, 8742.0, 8740.0, 8726.0, 8732.0, 8742.0, 8750.0, 8757.0, 8765.0, 8768.0, 8762.0, 8762.0, 8754.0, 8759.0, 8774.0, 8769.0, 8764.0, 8762.0, 8753.0, 8745.0, 8750.0, 8748.0, 8741.0, 8738.0, 8725.0, 8733.0, 8742.0, 8751.0, 8745.0, 8744.0, 8751.0, 8751.0, 8763.0, 8769.0, 8755.0, 8753.0, 8750.0, 8735.0, 8751.0, 8760.0, 8778.0, 8773.0, 8779.0, 8767.0, 8757.0, 8740.0, 8735.0, 8735.0, 8730.0, 8740.0, 8758.0, 8783.0, 8779.0, 8785.0, 8770.0, 8746.0, 8757.0, 8744.0, 8758.0, 8760.0, 8770.0, 8770.0, 8770.0, 8760.0, 8744.0, 8754.0, 8739.0, 8740.0, 8758.0, 8766.0, 8776.0],
      "WindowWidth": [18803.0, 18738.0, 18739.0, 18770.0, 18778.0, 18745.0, 18707.0, 18683.0, 18690.0, 18688.0, 18715.0, 18720.0, 18701.0, 18705.0, 18706.0, 18698.0, 18713.0, 18705.0, 18745.0, 18737.0, 18759.0, 18782.0, 18780.0, 18770.0, 18757.0, 18750.0, 18757.0, 18745.0, 18748.0, 18749.0, 18749.0, 18722.0, 18743.0, 18742.0, 18742.0, 18735.0, 18776.0, 18777.0, 18791.0, 18780.0, 18772.0, 18758.0, 18716.0, 18669.0, 18681.0, 18688.0, 18714.0, 18727.0, 18706.0, 18670.0, 18683.0, 18651.0, 18695.0, 18720.0, 18738.0, 18738.0, 18721.0, 18705.0, 18699.0, 18674.0, 18681.0, 18698.0, 18689.0, 18730.0, 18779.0, 18782.0, 18786.0, 18765.0, 18730.0, 18716.0, 18686.0, 18682.0, 18650.0, 18668.0, 18686.0, 18709.0, 18719.0, 18729.0, 18726.0, 18713.0, 18707.0, 18706.0, 18717.0, 18702.0, 18710.0, 18711.0, 18714.0, 18729.0, 18739.0, 18751.0, 18740.0, 18698.0, 18699.0, 18721.0, 18748.0, 18742.0, 18722.0, 18720.0, 18690.0, 18691.0, 18714.0, 18727.0, 18717.0, 18702.0, 18716.0, 18696.0, 18707.0, 18728.0, 18727.0, 18770.0, 18776.0, 18774.0, 18745.0, 18726.0, 18726.0, 18716.0, 18722.0, 18764.0, 18775.0, 18774.0, 18760.0, 18753.0, 18735.0, 18729.0, 18704.0, 18716.0, 18735.0, 18751.0, 18763.0, 18779.0, 18788.0, 18782.0, 18779.0, 18763.0, 18770.0, 18797.0, 18793.0, 18788.0, 18780.0, 18760.0, 18745.0, 18751.0, 18740.0, 18725.0, 18716.0, 18699.0, 18715.0, 18732.0, 18751.0, 18744.0, 18742.0, 18754.0, 18756.0, 18782.0, 18791.0, 18767.0, 18760.0, 18749.0, 18722.0, 18754.0, 18774.0, 18813.0, 18806.0, 18811.0, 18782.0, 18754.0, 18721.0, 18708.0, 18708.0, 18702.0, 18725.0, 18767.0, 18817.0, 18812.0, 18818.0, 18790.0, 18745.0, 18759.0, 18740.0, 18764.0, 18772.0, 18793.0, 18793.0, 18793.0, 18770.0, 18738.0, 18750.0, 18722.0, 18721.0, 18754.0, 18780.0, 18798.0]
    },
    "slices": {}
  },
  "NumberOfVolumes": 192
}