{
  "aor": 0.0006009947643979059,
  "aqi": 0.006809071256544502,
  "bids_meta": {
    "AcquisitionMatrixPE": 104,
    "AcquisitionNumber": 1,
    "AcquisitionTime": "15:51:18.482500",
    "BandwidthPerPixelPhaseEncode": 16.578,
    "BaseResolution": 104,
    "BodyPartExamined": "BRAIN",
    "CogAtlasID": "TODO",
    "ConsistencyInfo": "N4_VE11C_LATEST_20160120",
    "ConversionSoftware": "dcm2niix",
    "ConversionSoftwareVersion": "v1.0.20190902",
    "DerivedVendorReportedEchoSpacing": 0.000580009,
    "DeviceSerialNumber": "166018",
    "DwellTime": 2.1e-06,
    "EchoTime": 0.037,
    "EchoTrainLength": 104,
    "EffectiveEchoSpacing": 0.000580009,
    "FlipAngle": 68,
    "ImageComments": "Unaliased_MB6_PE3_LB",
    "ImageOrientationPatientDICOM": [
      0.998756,
      0.0349869,
      0.0355412,
      -0.0245835,
      0.965421,
      -0.259534
    ],
    "ImageType": [
      "ORIGINAL",
      "PRIMARY",
      "M",
      "MB",
      "ND",
      "MOSAIC"
    ],
    "ImagingFrequency": 123.191,
    "InPlanePhaseEncodingDirectionDICOM": "COL",
    "InstitutionAddress": "Washington_Place_6_NYC_NYC_US_10003",
    "InstitutionName": "NYU_-_CBI",
    "InstitutionalDepartmentName": "Department",
    "MRAcquisitionType": "2D",
    "MagneticFieldStrength": 3,
    "Manufacturer": "Siemens",
    "ManufacturersModelName": "Prisma",
    "Modality": "MR",
    "MultibandAccelerationFactor": 6,
    "NumberOfVolumes": 192,
    "PartialFourier": 1,
    "PatientPosition": "HFS",
    "PercentPhaseFOV": 100,
    "PhaseEncodingDirection": "j",
    "PhaseEncodingSteps": 104,
    "PhaseResolution": 1,
    "PixelBandwidth": 2290,
    "ProcedureStepDescription": "Investigators_Winawer",
    "ProtocolName": "cmrr_mbepi_s6_2mm_66sl_PA_task-prf",
    "PulseSequenceDetails": "%CustomerSeq%_cmrr_mbep2d_bold",
    "ReceiveCoilActiveElements": "HC1-7",
    "ReceiveCoilName": "HeadNeck_64",
    "ReconMatrixPE": 104,
    "RepetitionTime": 1,
    "SAR": 0.0682376,
    "ScanOptions": "FS",
    "ScanningSequence": "EP",
    "SequenceName": "epfid2d1_104",
    "SequenceVariant": "SK_SS",
    "SeriesDescription": "cmrr_mbepi_s6_2mm_66sl_PA_task-prf",
    "SeriesNumber": 24,
    "ShimSetting": [
      268,
      -12683,
      -8479,
      684,
      27,
      -214,
      121,
      -31
    ],
    "SliceThickness": 2,
    "SliceTiming": [
      0,
      0.535,
      0.09,
      0.625,
      0.18,
      0.7125,
      0.2675,
      0.8025,
      0.3575,
      0.8925,
      0.4475,
      0,
      0.535,
      0.09,
      0.625,
      0.18,
      0.7125,
      0.2675,
      0.8025,
      0.3575,
      0.8925,
      0.4475,
      0,
      0.535,
      0.09,
      0.625,
      0.18,
      0.7125,
      0.2675,
      0.8025,
      0.3575,
      0.8925,
      0.4475,
      0,
      0.535,
      0.09,
      0.625,
      0.18,
      0.7125,
      0.2675,
      0.8025,
      0.3575,
      0.8925,
      0.4475,
      0,
      0.535,
      0.09,
      0.625,
      0.18,
      0.7125,
      0.2675,
      0.8025,
      0.3575,
      0.8925,
      0.4475,
      0,
      0.535,
      0.09,
      0.625,
      0.18,
      0.7125,
      0.2675,
      0.8025,
      0.3575,
      0.8925,
      0.4475
    ],
    "SoftwareVersions": "syngo_MR_E11",
    "SpacingBetweenSlices": 2,
    "StationName": "AWP166018",
    "TaskName": "prf",
    "TotalReadoutTime": 0.0597409,
    "TxRefAmp": 229.983,
    "WipMemBlock": "7816fbbd-ffcb-42cb-9261-1e5f55231595||Sequence: R016 ve11c/master r/8780670; Nov 27 2017 15:05:12 by eja",
    "acq_id": "PA",
    "dataset": "unknown",
    "dcmmeta_affine": [
      [
        -1.9975111484527588,
        -0.049167003482580185,
        0.08678508549928665,
        109.34681701660156
      ],
      [
        -0.06997379660606384,
        1.9308418035507202,
        -0.5166755318641663,
        -70.97101593017578
      ],
      [
        0.07108244299888611,
        0.5190688967704773,
        1.930159330368042,
        -93.14346313476562
      ],
      [
        0.0,
        0.0,
        0.0,
        1.0
      ]
    ],
    "dcmmeta_reorient_transform": [
      [
        0.0,
        -1.0,
        0.0,
        103.0
      ],
      [
        1.0,
        0.0,
        0.0,
        0.0
      ],
      [
        0.0,
        0.0,
        1.0,
        0.0
      ],
      [
        0.0,
        0.0,
        0.0,
        1.0
      ]
    ],
    "dcmmeta_shape": [
      104,
      104,
      66,
      192
    ],
    "dcmmeta_slice_dim": 2,
    "dcmmeta_version": 0.6,
    "global": {
      "const": {
        "AccessionNumber": "JU45L8EW",
        "AcquisitionMatrix": [
          104,
          0,
          0,
          104
        ],
        "AngioFlag": "N",
        "BitsAllocated": 16,
        "BitsStored": 16,
        "BodyPartExamined": "BRAIN",
        "Columns": 936,
        "EchoNumbers": 1,
        "EchoTime": 37.0,
        "EchoTrainLength": 104,
        "FlipAngle": 68.0,
        "HighBit": 15,
        "ImageOrientationPatient": [
          0.9987555950964,
          0.03498689668548,
          0.0355412200685,
          -0.0245835026138,
          0.9654209056492,
          -0.2595344415193
        ],
        "ImagePositionPatient": [
          -914.79379542357,
          -960.24497851321,
          146.68298868247
        ],
        "ImageType": [
          "ORIGINAL",
          "PRIMARY",
          "M",
          "MB",
          "ND",
          "MOSAIC"
        ],
        "ImagedNucleus": "1H",
        "ImagingFrequency": 123.190971,
        "InPlanePhaseEncodingDirection": "COL",
        "MRAcquisitionType": "2D",
        "MagneticFieldStrength": 3.0,
        "Manufacturer": "SIEMENS",
        "ManufacturerModelName": "Prisma",
        "Modality": "MR",
        "NumberOfAverages": 1.0,
        "NumberOfPhaseEncodingSteps": 104,
        "PercentPhaseFieldOfView": 100.0,
        "PercentSampling": 100.0,
        "PerformedProcedureStepStartTime": "151256.218000",
        "PhotometricInterpretation": "MONOCHROME2",
        "PixelBandwidth": 2290.0,
        "PixelRepresentation": 0,
        "PixelSpacing": [
          2.0,
          2.0
        ],
        "ProtocolName": "cmrr_mbepi_s6_2mm_66sl_PA_task-prf",
        "RepetitionTime": 1000.0,
        "Rows": 936,
        "SAR": 0.06823761511738,
        "SamplesPerPixel": 1,
        "ScanOptions": "FS",
        "ScanningSequence": "EP",
        "SequenceName": "epfid2d1_104",
        "SequenceVariant": [
          "SK",
          "SS"
        ],
        "SeriesDescription": "cmrr_mbepi_s6_2mm_66sl_PA_task-prf",
        "SeriesNumber": 24,
        "SeriesTime": "155218.937000",
        "SliceLocation": -66.811532726435,
        "SliceThickness": 2.0,
        "SmallestImagePixelValue": 0,
        "SoftwareVersions": "syngo MR E11",
        "SpacingBetweenSlices": 2.00000002525,
        "SpecificCharacterSet": "ISO_IR 100",
        "StudyID": "1",
        "StudyTime": "151256.169000",
        "TransmitCoilName": "Body",
        "VariableFlipAngleFlag": "N",
        "WindowCenterWidthExplanation": "Algo1",
        "dBdt": 0.0
      },
      "slices": {}
    },
    "modality": "bold",
    "run_id": 5,
    "session_id": "nyu3t01",
    "subject_id": "wlsubj062",
    "task_id": "prf",
    "time": {
      "samples": {
        "AcquisitionNumber": [
          1,
          2,
          3,
          4,
          5,
          6,
          7,
          8,
          9,
          10,
          11,
          12,
          13,
          14,
          15,
          16,
          17,
          18,
          19,
          20,
          21,
          22,
          23,
          24,
          25,
          26,
          27,
          28,
          29,
          30,
          31,
          32,
          33,
          34,
          35,
          36,
          37,
          38,
          39,
          40,
          41,
          42,
          43,
          44,
          45,
          46,
          47,
          48,
          49,
          50,
          51,
          52,
          53,
          54,
          55,
          56,
          57,
          58,
          59,
          60,
          61,
          62,
          63,
          64,
          65,
          66,
          67,
          68,
          69,
          70,
          71,
          72,
          73,
          74,
          75,
          76,
          77,
          78,
          79,
          80,
          81,
          82,
          83,
          84,
          85,
          86,
          87,
          88,
          89,
          90,
          91,
          92,
          93,
          94,
          95,
          96,
          97,
          98,
          99,
          100,
          101,
          102,
          103,
          104,
          105,
          106,
          107,
          108,
          109,
          110,
          111,
          112,
          113,
          114,
          115,
          116,
          117,
          118,
          119,
          120,
          121,
          122,
          123,
          124,
          125,
          126,
          127,
          128,
          129,
          130,
          131,
          132,
          133,
          134,
          135,
          136,
          137,
          138,
          139,
          140,
          141,
          142,
          143,
          144,
          145,
          146,
          147,
          148,
          149,
          150,
          151,
          152,
          153,
          154,
          155,
          156,
          157,
          158,
          159,
          160,
          161,
          162,
          163,
          164,
          165,
          166,
          167,
          168,
          169,
          170,
          171,
          172,
          173,
          174,
          175,
          176,
          177,
          178,
          179,
          180,
          181,
          182,
          183,
          184,
          185,
          186,
          187,
          188,
          189,
          190,
          191,
          192
        ],
        "AcquisitionTime": [
          "155118.482500",
          "155119.482500",
          "155120.482500",
          "155121.482500",
          "155122.482500",
          "155123.482500",
          "155124.482500",
          "155125.482500",
          "155126.482500",
          "155127.482500",
          "155128.482500",
          "155129.482500",
          "155130.482500",
          "155131.482500",
          "155132.482500",
          "155133.482500",
          "155134.482500",
          "155135.482500",
          "155136.482500",
          "155137.482500",
          "155138.482500",
          "155139.482500",
          "155140.482500",
          "155141.482500",
          "155142.482500",
          "155143.482500",
          "155144.482500",
          "155145.482500",
          "155146.482500",
          "155147.482500",
          "155148.482500",
          "155149.482500",
          "155150.482500",
          "155151.482500",
          "155152.482500",
          "155153.482500",
          "155154.482500",
          "155155.482500",
          "155156.482500",
          "155157.482500",
          "155158.482500",
          "155159.482500",
          "155200.482500",
          "155201.482500",
          "155202.482500",
          "155203.482500",
          "155204.482500",
          "155205.482500",
          "155206.482500",
          "155207.482500",
          "155208.482500",
          "155209.482500",
          "155210.482500",
          "155211.482500",
          "155212.482500",
          "155213.482500",
          "155214.482500",
          "155215.482500",
          "155216.482500",
          "155217.482500",
          "155218.482500",
          "155219.482500",
          "155220.482500",
          "155221.482500",
          "155222.482500",
          "155223.482500",
          "155224.482500",
          "155225.482500",
          "155226.482500",
          "155227.482500",
          "155228.482500",
          "155229.482500",
          "155230.482500",
          "155231.482500",
          "155232.482500",
          "155233.482500",
          "155234.482500",
          "155235.482500",
          "155236.482500",
          "155237.482500",
          "155238.482500",
          "155239.482500",
          "155240.482500",
          "155241.482500",
          "155242.482500",
          "155243.482500",
          "155244.482500",
          "155245.482500",
          "155246.482500",
          "155247.482500",
          "155248.482500",
          "155249.482500",
          "155250.482500",
          "155251.482500",
          "155252.482500",
          "155253.482500",
          "155254.482500",
          "155255.482500",
          "155256.482500",
          "155257.482500",
          "155258.482500",
          "155259.482500",
          "155300.482500",
          "155301.482500",
          "155302.482500",
          "155303.482500",
          "155304.482500",
          "155305.482500",
          "155306.482500",
          "155307.482500",
          "155308.482500",
          "155309.482500",
          "155310.482500",
          "155311.482500",
          "155312.482500",
          "155313.482500",
          "155314.482500",
          "155315.482500",
          "155316.482500",
          "155317.482500",
          "155318.482500",
          "155319.482500",
          "155320.482500",
          "155321.482500",
          "155322.482500",
          "155323.482500",
          "155324.482500",
          "155325.482500",
          "155326.482500",
          "155327.482500",
          "155328.482500",
          "155329.482500",
          "155330.482500",
          "155331.482500",
          "155332.482500",
          "155333.482500",
          "155334.482500",
          "155335.482500",
          "155336.482500",
          "155337.482500",
          "155338.482500",
          "155339.482500",
          "155340.482500",
          "155341.482500",
          "155342.482500",
          "155343.482500",
          "155344.482500",
          "155345.482500",
          "155346.482500",
          "155347.482500",
          "155348.482500",
          "155349.482500",
          "155350.482500",
          "155351.482500",
          "155352.482500",
          "155353.482500",
          "155354.482500",
          "155355.482500",
          "155356.482500",
          "155357.482500",
          "155358.482500",
          "155359.482500",
          "155400.482500",
          "155401.482500",
          "155402.482500",
          "155403.482500",
          "155404.482500",
          "155405.482500",
          "155406.482500",
          "155407.482500",
          "155408.482500",
          "155409.482500",
          "155410.482500",
          "155411.482500",
          "155412.482500",
          "155413.482500",
          "155414.482500",
          "155415.482500",
          "155416.482500",
          "155417.482500",
          "155418.482500",
          "155419.482500",
          "155420.482500",
          "155421.482500",
          "155422.482500",
          "155423.482500",
          "155424.482500",
          "155425.482500",
          "155426.482500",
          "155427.482500",
          "155428.482500",
          "155429.482500"
        ],
        "ContentTime": [
          "155218.940000",
          "155218.953000",
          "155218.956000",
          "155218.959000",
          "155218.962000",
          "155218.965000",
          "155218.968000",
          "155223.938000",
          "155223.941000",
          "155223.944000",
          "155223.947000",
          "155223.950000",
          "155223.952000",
          "155223.963000",
          "155228.939000",
          "155228.942000",
          "155228.948000",
          "155228.951000",
          "155228.954000",
          "155228.956000",
          "155228.959000",
          "155233.939000",
          "155233.950000",
          "155233.953000",
          "155233.955000",
          "155233.958000",
          "155233.961000",
          "155233.964000",
          "155238.938000",
          "155238.941000",
          "155238.944000",
          "155238.947000",
          "155238.950000",
          "155238.952000",
          "155238.955000",
          "155243.939000",
          "155243.942000",
          "155243.945000",
          "155243.948000",
          "155243.950000",
          "155243.953000",
          "155243.956000",
          "155248.939000",
          "155248.942000",
          "155248.945000",
          "155248.947000",
          "155248.950000",
          "155248.953000",
          "155248.956000",
          "155248.959000",
          "155253.938000",
          "155253.950000",
          "155253.953000",
          "155253.956000",
          "155253.959000",
          "155253.962000",
          "155258.938000",
          "155258.941000",
          "155258.944000",
          "155258.946000",
          "155258.949000",
          "155258.952000",
          "155258.955000",
          "155258.958000",
          "155303.939000",
          "155303.942000",
          "155303.945000",
          "155303.948000",
          "155303.951000",
          "155303.953000",
          "155303.956000",
          "155308.939000",
          "155308.942000",
          "155308.945000",
          "155308.948000",
          "155308.951000",
          "155308.953000",
          "155308.956000",
          "155313.938000",
          "155313.941000",
          "155313.944000",
          "155313.947000",
          "155313.949000",
          "155313.952000",
          "155313.955000",
          "155318.939000",
          "155318.942000",
          "155318.945000",
          "155318.948000",
          "155318.951000",
          "155318.953000",
          "155318.956000",
          "155323.939000",
          "155323.942000",
          "155323.945000",
          "155323.948000",
          "155323.951000",
          "155323.954000",
          "155323.956000",
          "155328.938000",
          "155328.941000",
          "155328.944000",
          "155328.947000",
          "155328.949000",
          "155328.952000",
          "155328.955000",
          "155333.938000",
          "155333.941000",
          "155333.944000",
          "155333.947000",
          "155333.950000",
          "155333.952000",
          "155333.955000",
          "155338.939000",
          "155338.942000",
          "155338.945000",
          "155338.948000",
          "155338.951000",
          "155338.953000",
          "155338.956000",
          "155343.939000",
          "155343.942000",
          "155343.945000",
          "155343.948000",
          "155343.950000",
          "155343.953000",
          "155343.956000",
          "155348.938000",
          "155348.941000",
          "155348.944000",
          "155348.947000",
          "155348.950000",
          "155348.953000",
          "155348.955000",
          "155353.939000",
          "155353.942000",
          "155353.945000",
          "155353.948000",
          "155353.950000",
          "155353.953000",
          "155353.956000",
          "155358.939000",
          "155358.942000",
          "155358.945000",
          "155358.948000",
          "155358.950000",
          "155358.953000",
          "155358.956000",
          "155403.938000",
          "155403.941000",
          "155403.944000",
          "155403.947000",
          "155403.949000",
          "155403.952000",
          "155403.955000",
          "155408.938000",
          "155408.941000",
          "155408.944000",
          "155408.947000",
          "155408.950000",
          "155408.952000",
          "155408.955000",
          "155413.939000",
          "155413.942000",
          "155413.945000",
          "155413.948000",
          "155413.951000",
          "155413.953000",
          "155413.956000",
          "155418.939000",
          "155418.942000",
          "155418.945000",
          "155418.948000",
          "155418.950000",
          "155418.953000",
          "155418.956000",
          "155423.938000",
          "155423.941000",
          "155423.944000",
          "155423.947000",
          "155423.950000",
          "155423.953000",
          "155423.955000",
          "155423.958000",
          "155428.939000",
          "155428.959000",
          "155428.962000",
          "155428.964000",
          "155428.967000",
          "155431.312000",
          "155431.317000",
          "155431.320000"
        ],
        "InstanceCreationTime": [
          "155218.940000",
          "155218.953000",
          "155218.956000",
          "155218.959000",
          "155218.962000",
          "155218.965000",
          "155218.968000",
          "155223.938000",
          "155223.941000",
          "155223.944000",
          "155223.947000",
          "155223.950000",
          "155223.952000",
          "155223.963000",
          "155228.939000",
          "155228.942000",
          "155228.948000",
          "155228.951000",
          "155228.954000",
          "155228.956000",
          "155228.959000",
          "155233.939000",
          "155233.950000",
          "155233.953000",
          "155233.955000",
          "155233.958000",
          "155233.961000",
          "155233.964000",
          "155238.938000",
          "155238.941000",
          "155238.944000",
          "155238.947000",
          "155238.950000",
          "155238.952000",
          "155238.955000",
          "155243.939000",
          "155243.942000",
          "155243.945000",
          "155243.948000",
          "155243.950000",
          "155243.953000",
          "155243.956000",
          "155248.939000",
          "155248.942000",
          "155248.945000",
          "155248.947000",
          "155248.950000",
          "155248.953000",
          "155248.956000",
          "155248.959000",
          "155253.938000",
          "155253.950000",
          "155253.953000",
          "155253.956000",
          "155253.959000",
          "155253.962000",
          "155258.938000",
          "155258.941000",
          "155258.944000",
          "155258.946000",
          "155258.949000",
          "155258.952000",
          "155258.955000",
          "155258.958000",
          "155303.939000",
          "155303.942000",
          "155303.945000",
          "155303.948000",
          "155303.951000",
          "155303.953000",
          "155303.956000",
          "155308.939000",
          "155308.942000",
          "155308.945000",
          "155308.948000",
          "155308.951000",
          "155308.953000",
          "155308.956000",
          "155313.938000",
          "155313.941000",
          "155313.944000",
          "155313.947000",
          "155313.949000",
          "155313.952000",
          "155313.955000",
          "155318.939000",
          "155318.942000",
          "155318.945000",
          "155318.948000",
          "155318.951000",
          "155318.953000",
          "155318.956000",
          "155323.939000",
          "155323.942000",
          "155323.945000",
          "155323.948000",
          "155323.951000",
          "155323.954000",
          "155323.956000",
          "155328.938000",
          "155328.941000",
          "155328.944000",
          "155328.947000",
          "155328.949000",
          "155328.952000",
          "155328.955000",
          "155333.938000",
          "155333.941000",
          "155333.944000",
          "155333.947000",
          "155333.950000",
          "155333.952000",
          "155333.955000",
          "155338.939000",
          "155338.942000",
          "155338.945000",
          "155338.948000",
          "155338.951000",
          "155338.953000",
          "155338.956000",
          "155343.939000",
          "155343.942000",
          "155343.945000",
          "155343.948000",
          "155343.950000",
          "155343.953000",
          "155343.956000",
          "155348.938000",
          "155348.941000",
          "155348.944000",
          "155348.947000",
          "155348.950000",
          "155348.953000",
          "155348.955000",
          "155353.939000",
          "155353.942000",
          "155353.945000",
          "155353.948000",
          "155353.950000",
          "155353.953000",
          "155353.956000",
          "155358.939000",
          "155358.942000",
          "155358.945000",
          "155358.948000",
          "155358.950000",
          "155358.953000",
          "155358.956000",
          "155403.938000",
          "155403.941000",
          "155403.944000",
          "155403.947000",
          "155403.949000",
          "155403.952000",
          "155403.955000",
          "155408.938000",
          "155408.941000",
          "155408.944000",
          "155408.947000",
          "155408.950000",
          "155408.952000",
          "155408.955000",
          "155413.939000",
          "155413.942000",
          "155413.945000",
          "155413.948000",
          "155413.951000",
          "155413.953000",
          "155413.956000",
          "155418.939000",
          "155418.942000",
          "155418.945000",
          "155418.948000",
          "155418.950000",
          "155418.953000",
          "155418.956000",
          "155423.938000",
          "155423.941000",
          "155423.944000",
          "155423.947000",
          "155423.950000",
          "155423.953000",
          "155423.955000",
          "155423.958000",
          "155428.939000",
          "155428.959000",
          "155428.962000",
          "155428.964000",
          "155428.967000",
          "155431.312000",
          "155431.317000",
          "155431.320000"
        ],
        "InstanceNumber": [
          1,
          2,
          3,
          4,
          5,
          6,
          7,
          8,
          9,
          10,
          11,
          12,
          13,
          14,
          15,
          16,
          17,
          18,
          19,
          20,
          21,
          22,
          23,
          24,
          25,
          26,
          27,
          28,
          29,
          30,
          31,
          32,
          33,
          34,
          35,
          36,
          37,
          38,
          39,
          40,
          41,
          42,
          43,
          44,
          45,
          46,
          47,
          48,
          49,
          50,
          51,
          52,
          53,
          54,
          55,
          56,
          57,
          58,
          59,
          60,
          61,
          62,
          63,
          64,
          65,
          66,
          67,
          68,
          69,
          70,
          71,
          72,
          73,
          74,
          75,
          76,
          77,
          78,
          79,
          80,
          81,
          82,
          83,
          84,
          85,
          86,
          87,
          88,
          89,
          90,
          91,
          92,
          93,
          94,
          95,
          96,
          97,
          98,
          99,
          100,
          101,
          102,
          103,
          104,
          105,
          106,
          107,
          108,
          109,
          110,
          111,
          112,
          113,
          114,
          115,
          116,
          117,
          118,
          119,
          120,
          121,
          122,
          123,
          124,
          125,
          126,
          127,
          128,
          129,
          130,
          131,
          132,
          133,
          134,
          135,
          136,
          137,
          138,
          139,
          140,
          141,
          142,
          143,
          144,
          145,
          146,
          147,
          148,
          149,
          150,
          151,
          152,
          153,
          154,
          155,
          156,
          157,
          158,
          159,
          160,
          161,
          162,
          163,
          164,
          165,
          166,
          167,
          168,
          169,
          170,
          171,
          172,
          173,
          174,
          175,
          176,
          177,
          178,
          179,
          180,
          181,
          182,
          183,
          184,
          185,
          186,
          187,
          188,
          189,
          190,
          191,
          192
        ],
        "LargestImagePixelValue": [
          42858,
          41912,
          42107,
          42478,
          42002,
          42296,
          41210,
          40667,
          41729,
          41106,
          40751,
          41240,
          40763,
          40523,
          40865,
          40309,
          40549,
          40971,
          40747,
          40879,
          40625,
          40982,
          41384,
          41702,
          41643,
          41253,
          41259,
          40879,
          41628,
          41942,
          42264,
          42228,
          42033,
          41758,
          41011,
          40725,
          40814,
          41173,
          40562,
          40486,
          40046,
          40297,
          40249,
          41123,
          41756,
          42154,
          41742,
          41181,
          41516,
          40519,
          41436,
          41988,
          42253,
          41613,
          41751,
          41544,
          40942,
          41443,
          41510,
          41866,
          41578,
          42288,
          42255,
          41705,
          41257,
          41292,
          41842,
          40997,
          40895,
          41301,
          40774,
          39619,
          40299,
          40405,
          40270,
          40536,
          41212,
          40942,
          40458,
          40968,
          40686,
          40202,
          40517,
