{
  "aor": 0.0017702083333333335,
  "aqi": 0.0111452146875,
  "bids_meta": {
    "AcquisitionMatrixPE": 104,
    "AcquisitionNumber": 1,
    "AcquisitionTime": "17:06:43.392500",
    "BandwidthPerPixelPhaseEncode": 16.578,
    "BaseResolution": 104,
    "BodyPartExamined": "BRAIN",
    "CogAtlasID": "TODO",
    "ConsistencyInfo": "N4_VE11C_LATEST_20160120",
    "ConversionSoftware": "dcm2niix",
    "ConversionSoftwareVersion": "v1.0.20190902",
    "DerivedVendorReportedEchoSpacing": 0.000580009,
    "DeviceSerialNumber": "166018",
    "DwellTime": 2.1e-06,
    "EchoTime": 0.037,
    "EchoTrainLength": 104,
    "EffectiveEchoSpacing": 0.000580009,
    "FlipAngle": 68,
    "ImageComments": "Unaliased_MB6_PE3_LB",
    "ImageOrientationPatientDICOM": [
      0.997185,
      0.00162267,
      -0.0749692,
      -0.0182764,
      0.974876,
      -0.221999
    ],
    "ImageType": [
      "ORIGINAL",
      "PRIMARY",
      "M",
      "MB",
      "ND",
      "MOSAIC"
    ],
    "ImagingFrequency": 123.191,
    "InPlanePhaseEncodingDirectionDICOM": "COL",
    "InstitutionAddress": "Washington_Place_6_NYC_NYC_US_10003",
    "InstitutionName": "NYU_-_CBI",
    "InstitutionalDepartmentName": "Department",
    "MRAcquisitionType": "2D",
    "MagneticFieldStrength": 3,
    "Manufacturer": "Siemens",
    "ManufacturersModelName": "Prisma",
    "Modality": "MR",
    "MultibandAccelerationFactor": 6,
    "NumberOfVolumes": 192,
    "PartialFourier": 1,
    "PatientPosition": "HFS",
    "PercentPhaseFOV": 100,
    "PhaseEncodingDirection": "j",
    "PhaseEncodingSteps": 104,
    "PhaseResolution": 1,
    "PixelBandwidth": 2290,
    "ProcedureStepDescription": "Investigators_Winawer",
    "ProtocolName": "cmrr_mbepi_task-prf",
    "PulseSequenceDetails": "%CustomerSeq%_cmrr_mbep2d_bold",
    "ReceiveCoilActiveElements": "HC1-7",
    "ReceiveCoilName": "HeadNeck_64",
    "ReconMatrixPE": 104,
    "RepetitionTime": 1,
    "SAR": 0.070109,
    "ScanOptions": "FS",
    "ScanningSequence": "EP",
    "SequenceName": "epfid2d1_104",
    "SequenceVariant": "SK_SS",
    "SeriesDescription": "cmrr_mbepi_task-prf",
    "SeriesNumber": 12,
    "ShimSetting": [
      255,
      -12586,
      -8478,
      196,
      37,
      -59,
      4,
      18
    ],
    "SliceThickness": 2,
    "SliceTiming": [
      0,
      0.535,
      0.0875,
      0.6225,
      0.1775,
      0.7125,
      0.2675,
      0.8025,
      0.355,
      0.89,
      0.445,
      0,
      0.535,
      0.0875,
      0.6225,
      0.1775,
      0.7125,
      0.2675,
      0.8025,
      0.355,
      0.89,
      0.445,
      0,
      0.535,
      0.0875,
      0.6225,
      0.1775,
      0.7125,
      0.2675,
      0.8025,
      0.355,
      0.89,
      0.445,
      0,
      0.535,
      0.0875,
      0.6225,
      0.1775,
      0.7125,
      0.2675,
      0.8025,
      0.355,
      0.89,
      0.445,
      0,
      0.535,
      0.0875,
      0.6225,
      0.1775,
      0.7125,
      0.2675,
      0.8025,
      0.355,
      0.89,
      0.445,
      0,
      0.535,
      0.0875,
      0.6225,
      0.1775,
      0.7125,
      0.2675,
      0.8025,
      0.355,
      0.89,
      0.445
    ],
    "SoftwareVersions": "syngo_MR_E11",
    "SpacingBetweenSlices": 2,
    "StationName": "AWP166018",
    "TaskName": "prf",
    "TotalReadoutTime": 0.0597409,
    "TxRefAmp": 235.653,
    "WipMemBlock": "c4dddd9a-789b-4d32-8c28-d81f10193766||Sequence: R016 ve11c/master r/8780670; Nov 27 2017 15:05:12 by eja",
    "acq_id": "PA",
    "dataset": "unknown",
    "dcmmeta_affine": [
      [
        -1.9943690299987793,
        -0.036552850157022476,
        -0.14545075595378876,
        112.59915924072266
      ],
      [
        -0.0032453425228595734,
        1.9497512578964233,
        -0.445487916469574,
        -69.6710433959961
      ],
      [
        -0.14993833005428314,
        0.4439976215362549,
        1.9443210363388062,
        -70.76173400878906
      ],
      [
        0.0,
        0.0,
        0.0,
        1.0
      ]
    ],
    "dcmmeta_reorient_transform": [
      [
        0.0,
        -1.0,
        0.0,
        103.0
      ],
      [
        1.0,
        0.0,
        0.0,
        0.0
      ],
      [
        0.0,
        0.0,
        1.0,
        0.0
      ],
      [
        0.0,
        0.0,
        0.0,
        1.0
      ]
    ],
    "dcmmeta_shape": [
      104,
      104,
      66,
      192
    ],
    "dcmmeta_slice_dim": 2,
    "dcmmeta_version": 0.6,
    "global": {
      "const": {
        "AccessionNumber": "jjizxsx9",
        "AcquisitionMatrix": [
          104,
          0,
          0,
          104
        ],
        "AngioFlag": "N",
        "BitsAllocated": 16,
        "BitsStored": 16,
        "BodyPartExamined": "BRAIN",
        "Columns": 936,
        "EchoNumbers": 1,
        "EchoTime": 37.0,
        "EchoTrainLength": 104,
        "FlipAngle": 68.0,
        "HighBit": 15,
        "ImageOrientationPatient": [
          0.99718453221082,
          0.00162267129405,
          -0.0749691647103,
          -0.0182764253168,
          0.97487563167389,
          -0.2219988176682
        ],
        "ImagePositionPatient": [
          -923.28576000254,
          -943.59992859154,
          222.04738535764
        ],
        "ImageType": [
          "ORIGINAL",
          "PRIMARY",
          "M",
          "MB",
          "ND",
          "MOSAIC"
        ],
        "ImagedNucleus": "1H",
        "ImagingFrequency": 123.1911,
        "InPlanePhaseEncodingDirection": "COL",
        "MRAcquisitionType": "2D",
        "MagneticFieldStrength": 3.0,
        "Manufacturer": "SIEMENS",
        "ManufacturerModelName": "Prisma",
        "Modality": "MR",
        "NumberOfAverages": 1.0,
        "NumberOfPhaseEncodingSteps": 104,
        "PercentPhaseFieldOfView": 100.0,
        "PercentSampling": 100.0,
        "PerformedProcedureStepStartTime": "163818.334000",
        "PhotometricInterpretation": "MONOCHROME2",
        "PixelBandwidth": 2290.0,
        "PixelRepresentation": 0,
        "PixelSpacing": [
          2.0,
          2.0
        ],
        "ProtocolName": "cmrr_mbepi_task-prf",
        "RepetitionTime": 1000.0,
        "Rows": 936,
        "SAR": 0.07010896385629,
        "SamplesPerPixel": 1,
        "ScanOptions": "FS",
        "ScanningSequence": "EP",
        "SequenceName": "epfid2d1_104",
        "SequenceVariant": [
          "SK",
          "SS"
        ],
        "SeriesDescription": "cmrr_mbepi_task-prf",
        "SeriesNumber": 12,
        "SeriesTime": "170740.788000",
        "SliceLocation": -61.461778967471,
        "SliceThickness": 2.0,
        "SmallestImagePixelValue": 0,
        "SoftwareVersions": "syngo MR E11",
        "SpacingBetweenSlices": 1.9999999731397,
        "SpecificCharacterSet": "ISO_IR 100",
        "StudyID": "1",
        "StudyTime": "163818.274000",
        "TransmitCoilName": "Body",
        "VariableFlipAngleFlag": "N",
        "WindowCenterWidthExplanation": "Algo1",
        "dBdt": 0.0
      },
      "slices": {}
    },
    "modality": "bold",
    "run_id": 3,
    "session_id": "nyu3t01",
    "subject_id": "wlsubj055",
    "task_id": "prf",
    "time": {
      "samples": {
        "AcquisitionNumber": [
          1,
          2,
          3,
          4,
          5,
          6,
          7,
          8,
          9,
          10,
          11,
          12,
          13,
          14,
          15,
          16,
          17,
          18,
          19,
          20,
          21,
          22,
          23,
          24,
          25,
          26,
          27,
          28,
          29,
          30,
          31,
          32,
          33,
          34,
          35,
          36,
          37,
          38,
          39,
          40,
          41,
          42,
          43,
          44,
          45,
          46,
          47,
          48,
          49,
          50,
          51,
          52,
          53,
          54,
          55,
          56,
          57,
          58,
          59,
          60,
          61,
          62,
          63,
          64,
          65,
          66,
          67,
          68,
          69,
          70,
          71,
          72,
          73,
          74,
          75,
          76,
          77,
          78,
          79,
          80,
          81,
          82,
          83,
          84,
          85,
          86,
          87,
          88,
          89,
          90,
          91,
          92,
          93,
          94,
          95,
          96,
          97,
          98,
          99,
          100,
          101,
          102,
          103,
          104,
          105,
          106,
          107,
          108,
          109,
          110,
          111,
          112,
          113,
          114,
          115,
          116,
          117,
          118,
          119,
          120,
          121,
          122,
          123,
          124,
          125,
          126,
          127,
          128,
          129,
          130,
          131,
          132,
          133,
          134,
          135,
          136,
          137,
          138,
          139,
          140,
          141,
          142,
          143,
          144,
          145,
          146,
          147,
          148,
          149,
          150,
          151,
          152,
          153,
          154,
          155,
          156,
          157,
          158,
          159,
          160,
          161,
          162,
          163,
          164,
          165,
          166,
          167,
          168,
          169,
          170,
          171,
          172,
          173,
          174,
          175,
          176,
          177,
          178,
          179,
          180,
          181,
          182,
          183,
          184,
          185,
          186,
          187,
          188,
          189,
          190,
          191,
          192
        ],
        "AcquisitionTime": [
          "170643.392500",
          "170644.392500",
          "170645.392500",
          "170646.392500",
          "170647.392500",
          "170648.392500",
          "170649.392500",
          "170650.392500",
          "170651.392500",
          "170652.392500",
          "170653.392500",
          "170654.392500",
          "170655.392500",
          "170656.392500",
          "170657.392500",
          "170658.392500",
          "170659.392500",
          "170700.392500",
          "170701.392500",
          "170702.392500",
          "170703.392500",
          "170704.392500",
          "170705.392500",
          "170706.392500",
          "170707.392500",
          "170708.392500",
          "170709.392500",
          "170710.392500",
          "170711.392500",
          "170712.392500",
          "170713.392500",
          "170714.392500",
          "170715.392500",
          "170716.392500",
          "170717.392500",
          "170718.392500",
          "170719.392500",
          "170720.392500",
          "170721.392500",
          "170722.392500",
          "170723.392500",
          "170724.392500",
          "170725.392500",
          "170726.392500",
          "170727.392500",
          "170728.392500",
          "170729.392500",
          "170730.392500",
          "170731.392500",
          "170732.392500",
          "170733.392500",
          "170734.392500",
          "170735.392500",
          "170736.392500",
          "170737.392500",
          "170738.392500",
          "170739.392500",
          "170740.392500",
          "170741.392500",
          "170742.392500",
          "170743.392500",
          "170744.392500",
          "170745.392500",
          "170746.392500",
          "170747.392500",
          "170748.392500",
          "170749.392500",
          "170750.392500",
          "170751.392500",
          "170752.392500",
          "170753.392500",
          "170754.392500",
          "170755.392500",
          "170756.392500",
          "170757.392500",
          "170758.392500",
          "170759.392500",
          "170800.392500",
          "170801.392500",
          "170802.392500",
          "170803.392500",
          "170804.392500",
          "170805.392500",
          "170806.392500",
          "170807.392500",
          "170808.392500",
          "170809.392500",
          "170810.392500",
          "170811.392500",
          "170812.392500",
          "170813.392500",
          "170814.392500",
          "170815.392500",
          "170816.392500",
          "170817.392500",
          "170818.392500",
          "170819.392500",
          "170820.392500",
          "170821.392500",
          "170822.392500",
          "170823.392500",
          "170824.392500",
          "170825.392500",
          "170826.392500",
          "170827.392500",
          "170828.392500",
          "170829.392500",
          "170830.392500",
          "170831.392500",
          "170832.392500",
          "170833.392500",
          "170834.392500",
          "170835.392500",
          "170836.392500",
          "170837.392500",
          "170838.392500",
          "170839.392500",
          "170840.392500",
          "170841.392500",
          "170842.392500",
          "170843.392500",
          "170844.392500",
          "170845.392500",
          "170846.392500",
          "170847.392500",
          "170848.392500",
          "170849.392500",
          "170850.392500",
          "170851.392500",
          "170852.392500",
          "170853.392500",
          "170854.392500",
          "170855.392500",
          "170856.392500",
          "170857.392500",
          "170858.392500",
          "170859.392500",
          "170900.392500",
          "170901.392500",
          "170902.392500",
          "170903.392500",
          "170904.392500",
          "170905.392500",
          "170906.392500",
          "170907.392500",
          "170908.392500",
          "170909.392500",
          "170910.392500",
          "170911.392500",
          "170912.392500",
          "170913.392500",
          "170914.392500",
          "170915.392500",
          "170916.392500",
          "170917.392500",
          "170918.392500",
          "170919.392500",
          "170920.392500",
          "170921.392500",
          "170922.392500",
          "170923.392500",
          "170924.392500",
          "170925.392500",
          "170926.392500",
          "170927.392500",
          "170928.392500",
          "170929.392500",
          "170930.392500",
          "170931.392500",
          "170932.392500",
          "170933.392500",
          "170934.392500",
          "170935.392500",
          "170936.392500",
          "170937.392500",
          "170938.392500",
          "170939.392500",
          "170940.392500",
          "170941.392500",
          "170942.392500",
          "170943.392500",
          "170944.392500",
          "170945.392500",
          "170946.392500",
          "170947.392500",
          "170948.392500",
          "170949.392500",
          "170950.392500",
          "170951.392500",
          "170952.392500",
          "170953.392500",
          "170954.392500"
        ],
        "ContentTime": [
          "170740.791000",
          "170740.795000",
          "170740.798000",
          "170740.801000",
          "170740.804000",
          "170745.754000",
          "170745.757000",
          "170745.760000",
          "170745.763000",
          "170745.782000",
          "170745.810000",
          "170745.818000",
          "170750.754000",
          "170750.757000",
          "170750.760000",
          "170750.763000",
          "170750.767000",
          "170750.770000",
          "170750.773000",
          "170755.755000",
          "170755.758000",
          "170755.761000",
          "170755.765000",
          "170755.768000",
          "170755.771000",
          "170755.774000",
          "170800.754000",
          "170800.757000",
          "170800.760000",
          "170800.763000",
          "170800.767000",
          "170800.770000",
          "170800.773000",
          "170805.754000",
          "170805.757000",
          "170805.760000",
          "170805.764000",
          "170805.767000",
          "170805.770000",
          "170805.773000",
          "170810.754000",
          "170810.757000",
          "170810.760000",
          "170810.763000",
          "170810.767000",
          "170810.769000",
          "170810.773000",
          "170810.775000",
          "170815.754000",
          "170815.757000",
          "170815.760000",
          "170815.763000",
          "170815.767000",
          "170815.770000",
          "170820.754000",
          "170820.757000",
          "170820.760000",
          "170820.763000",
          "170820.767000",
          "170820.770000",
          "170820.773000",
          "170825.754000",
          "170825.757000",
          "170825.760000",
          "170825.763000",
          "170825.767000",
          "170825.770000",
          "170825.773000",
          "170830.755000",
          "170830.758000",
          "170830.761000",
          "170830.765000",
          "170830.768000",
          "170830.771000",
          "170830.774000",
          "170835.754000",
          "170835.757000",
          "170835.760000",
          "170835.763000",
          "170835.767000",
          "170835.770000",
          "170835.773000",
          "170835.776000",
          "170840.754000",
          "170840.757000",
          "170840.760000",
          "170840.763000",
          "170840.767000",
          "170840.770000",
          "170840.772000",
          "170845.754000",
          "170845.757000",
          "170845.760000",
          "170845.764000",
          "170845.767000",
          "170845.770000",
          "170845.773000",
          "170850.754000",
          "170850.757000",
          "170850.760000",
          "170850.763000",
          "170850.767000",
          "170850.770000",
          "170850.773000",
          "170855.754000",
          "170855.757000",
          "170855.760000",
          "170855.768000",
          "170855.771000",
          "170855.774000",
          "170855.777000",
          "170900.754000",
          "170900.757000",
          "170900.760000",
          "170900.764000",
          "170900.767000",
          "170900.770000",
          "170900.773000",
          "170905.755000",
          "170905.758000",
          "170905.761000",
          "170905.765000",
          "170905.768000",
          "170905.771000",
          "170905.774000",
          "170910.754000",
          "170910.757000",
          "170910.760000",
          "170910.764000",
          "170910.767000",
          "170910.770000",
          "170910.773000",
          "170915.754000",
          "170915.757000",
          "170915.760000",
          "170915.764000",
          "170915.767000",
          "170915.770000",
          "170915.773000",
          "170920.754000",
          "170920.757000",
          "170920.760000",
          "170920.764000",
          "170920.767000",
          "170920.770000",
          "170920.773000",
          "170925.754000",
          "170925.757000",
          "170925.760000",
          "170925.764000",
          "170925.767000",
          "170925.770000",
          "170925.773000",
          "170935.754000",
          "170935.757000",
          "170935.760000",
          "170935.764000",
          "170935.768000",
          "170935.770000",
          "170935.774000",
          "170935.776000",
          "170935.779000",
          "170935.782000",
          "170935.785000",
          "170935.788000",
          "170935.791000",
          "170935.794000",
          "170940.755000",
          "170940.758000",
          "170940.761000",
          "170940.765000",
          "170940.768000",
          "170940.771000",
          "170940.774000",
          "170945.754000",
          "170945.757000",
          "170945.760000",
          "170945.764000",
          "170945.768000",
          "170945.771000",
          "170945.774000",
          "170950.754000",
          "170950.757000",
          "170950.760000",
          "170950.765000",
          "170950.768000",
          "170955.754000",
          "170955.757000",
          "170955.760000",
          "170955.763000",
          "170955.766000",
          "170955.946000"
        ],
        "InstanceCreationTime": [
          "170740.791000",
          "170740.795000",
          "170740.798000",
          "170740.801000",
          "170740.804000",
          "170745.754000",
          "170745.757000",
          "170745.760000",
          "170745.763000",
          "170745.782000",
          "170745.810000",
          "170745.818000",
          "170750.754000",
          "170750.757000",
          "170750.760000",
          "170750.763000",
          "170750.767000",
          "170750.770000",
          "170750.773000",
          "170755.755000",
          "170755.758000",
          "170755.761000",
          "170755.765000",
          "170755.768000",
          "170755.771000",
          "170755.774000",
          "170800.754000",
          "170800.757000",
          "170800.760000",
          "170800.763000",
          "170800.767000",
          "170800.770000",
          "170800.773000",
          "170805.754000",
          "170805.757000",
          "170805.760000",
          "170805.764000",
          "170805.767000",
          "170805.770000",
          "170805.773000",
          "170810.754000",
          "170810.757000",
          "170810.760000",
          "170810.763000",
          "170810.767000",
          "170810.769000",
          "170810.773000",
          "170810.775000",
          "170815.754000",
          "170815.757000",
          "170815.760000",
          "170815.763000",
          "170815.767000",
          "170815.770000",
          "170820.754000",
          "170820.757000",
          "170820.760000",
          "170820.763000",
          "170820.767000",
          "170820.770000",
          "170820.773000",
          "170825.754000",
          "170825.757000",
          "170825.760000",
          "170825.763000",
          "170825.767000",
          "170825.770000",
          "170825.773000",
          "170830.755000",
          "170830.758000",
          "170830.761000",
          "170830.765000",
          "170830.768000",
          "170830.771000",
          "170830.774000",
          "170835.754000",
          "170835.757000",
          "170835.760000",
          "170835.763000",
          "170835.767000",
          "170835.770000",
          "170835.773000",
          "170835.776000",
          "170840.754000",
          "170840.757000",
          "170840.760000",
          "170840.763000",
          "170840.767000",
          "170840.770000",
          "170840.772000",
          "170845.754000",
          "170845.757000",
          "170845.760000",
          "170845.764000",
          "170845.767000",
          "170845.770000",
          "170845.773000",
          "170850.754000",
          "170850.757000",
          "170850.760000",
          "170850.763000",
          "170850.767000",
          "170850.770000",
          "170850.773000",
          "170855.754000",
          "170855.757000",
          "170855.760000",
          "170855.768000",
          "170855.771000",
          "170855.774000",
          "170855.777000",
          "170900.754000",
          "170900.757000",
          "170900.760000",
          "170900.764000",
          "170900.767000",
          "170900.770000",
          "170900.773000",
          "170905.755000",
          "170905.758000",
          "170905.761000",
          "170905.765000",
          "170905.768000",
          "170905.771000",
          "170905.774000",
          "170910.754000",
          "170910.757000",
          "170910.760000",
          "170910.764000",
          "170910.767000",
          "170910.770000",
          "170910.773000",
          "170915.754000",
          "170915.757000",
          "170915.760000",
          "170915.764000",
          "170915.767000",
          "170915.770000",
          "170915.773000",
          "170920.754000",
          "170920.757000",
          "170920.760000",
          "170920.764000",
          "170920.767000",
          "170920.770000",
          "170920.773000",
          "170925.754000",
          "170925.757000",
          "170925.760000",
          "170925.764000",
          "170925.767000",
          "170925.770000",
          "170925.773000",
          "170935.754000",
          "170935.757000",
          "170935.760000",
          "170935.764000",
          "170935.768000",
          "170935.770000",
          "170935.774000",
          "170935.776000",
          "170935.779000",
          "170935.782000",
          "170935.785000",
          "170935.788000",
          "170935.791000",
          "170935.794000",
          "170940.755000",
          "170940.758000",
          "170940.761000",
          "170940.765000",
          "170940.768000",
          "170940.771000",
          "170940.774000",
          "170945.754000",
          "170945.757000",
          "170945.760000",
          "170945.764000",
          "170945.768000",
          "170945.771000",
          "170945.774000",
          "170950.754000",
          "170950.757000",
          "170950.760000",
          "170950.765000",
          "170950.768000",
          "170955.754000",
          "170955.757000",
          "170955.760000",
          "170955.763000",
          "170955.766000",
          "170955.946000"
        ],
        "InstanceNumber": [
          1,
          2,
          3,
          4,
          5,
          6,
          7,
          8,
          9,
          10,
          11,
          12,
          13,
          14,
          15,
          16,
          17,
          18,
          19,
          20,
          21,
          22,
          23,
          24,
          25,
          26,
          27,
          28,
          29,
          30,
          31,
          32,
          33,
          34,
          35,
          36,
          37,
          38,
          39,
          40,
          41,
          42,
          43,
          44,
          45,
          46,
          47,
          48,
          49,
          50,
          51,
          52,
          53,
          54,
          55,
          56,
          57,
          58,
          59,
          60,
          61,
          62,
          63,
          64,
          65,
          66,
          67,
          68,
          69,
          70,
          71,
          72,
          73,
          74,
          75,
          76,
          77,
          78,
          79,
          80,
          81,
          82,
          83,
          84,
          85,
          86,
          87,
          88,
          89,
          90,
          91,
          92,
          93,
          94,
          95,
          96,
          97,
          98,
          99,
          100,
          101,
          102,
          103,
          104,
          105,
          106,
          107,
          108,
          109,
          110,
          111,
          112,
          113,
          114,
          115,
          116,
          117,
          118,
          119,
          120,
          121,
          122,
          123,
          124,
          125,
          126,
          127,
          128,
          129,
          130,
          131,
          132,
          133,
          134,
          135,
          136,
          137,
          138,
          139,
          140,
          141,
          142,
          143,
          144,
          145,
          146,
          147,
          148,
          149,
          150,
          151,
          152,
          153,
          154,
          155,
          156,
          157,
          158,
          159,
          160,
          161,
          162,
          163,
          164,
          165,
          166,
          167,
          168,
          169,
          170,
          171,
          172,
          173,
          174,
          175,
          176,
          177,
          178,
          179,
          180,
          181,
          182,
          183,
          184,
          185,
          186,
          187,
          188,
          189,
          190,
          191,
          192
        ],
        "LargestImagePixelValue": [
          29841,
          29120,
          28128,
          28530,
          27700,
          28233,
          27866,
          28514,
          27324,
          28041,
          27667,
          27830,
          27720,
          27489,
          27899,
          27777,
          28260,
          27787,
          27700,
          27409,
          27816,
          27696,
          28122,
          27647,
          28139,
          28210,
          27545,
          27473,
          27432,
          27737,
          26516,
          27519,
          27021,
          27817,
          27487,
          27038,
          27132,
          26852,
          26590,
          27536,
          27161,
          27542,
          27062,
          27064,
          26891,
          27352,
          27017,
          26841,
          27005,
          27167,
          27355,
          27627,
          27422,
          27395,
          27435,
          26871,
          26556,
          27494,
          27126,
          27501,
          27524,
          27383,
          27299,
          27141,
          26929,
          26889,
          27140,
          26982,
          26478,
          26897,
          27044,
          26809,
          26913,
          26682,
          26619,
          27137,
          26862,
          27345,
          27744,
          26518,
          26656,
          28562,
          27701,
          27485,
          28291,
          28090,
