{
  "aor": 0.0014286979166666669,
  "aqi": 0.011206180572916667,
  "bids_meta": {
    "AcquisitionMatrixPE": 104,
    "AcquisitionNumber": 1,
    "AcquisitionTime": "16:56:33.902500",
    "BandwidthPerPixelPhaseEncode": 16.578,
    "BaseResolution": 104,
    "BodyPartExamined": "BRAIN",
    "CogAtlasID": "TODO",
    "ConsistencyInfo": "N4_VE11C_LATEST_20160120",
    "ConversionSoftware": "dcm2niix",
    "ConversionSoftwareVersion": "v1.0.20190902",
    "DerivedVendorReportedEchoSpacing": 0.000580009,
    "DeviceSerialNumber": "166018",
    "DwellTime": 2.1e-06,
    "EchoTime": 0.037,
    "EchoTrainLength": 104,
    "EffectiveEchoSpacing": 0.000580009,
    "FlipAngle": 68,
    "ImageComments": "Unaliased_MB6_PE3_LB",
    "ImageOrientationPatientDICOM": [
      0.997185,
      0.00162267,
      -0.0749692,
      -0.0182764,
      0.974876,
      -0.221999
    ],
    "ImageType": [
      "ORIGINAL",
      "PRIMARY",
      "M",
      "MB",
      "ND",
      "MOSAIC"
    ],
    "ImagingFrequency": 123.191,
    "InPlanePhaseEncodingDirectionDICOM": "COL",
    "InstitutionAddress": "Washington_Place_6_NYC_NYC_US_10003",
    "InstitutionName": "NYU_-_CBI",
    "InstitutionalDepartmentName": "Department",
    "MRAcquisitionType": "2D",
    "MagneticFieldStrength": 3,
    "Manufacturer": "Siemens",
    "ManufacturersModelName": "Prisma",
    "Modality": "MR",
    "MultibandAccelerationFactor": 6,
    "NumberOfVolumes": 192,
    "PartialFourier": 1,
    "PatientPosition": "HFS",
    "PercentPhaseFOV": 100,
    "PhaseEncodingDirection": "j",
    "PhaseEncodingSteps": 104,
    "PhaseResolution": 1,
    "PixelBandwidth": 2290,
    "ProcedureStepDescription": "Investigators_Winawer",
    "ProtocolName": "cmrr_mbepi_task-prf",
    "PulseSequenceDetails": "%CustomerSeq%_cmrr_mbep2d_bold",
    "ReceiveCoilActiveElements": "HC1-7",
    "ReceiveCoilName": "HeadNeck_64",
    "ReconMatrixPE": 104,
    "RepetitionTime": 1,
    "SAR": 0.070109,
    "ScanOptions": "FS",
    "ScanningSequence": "EP",
    "SequenceName": "epfid2d1_104",
    "SequenceVariant": "SK_SS",
    "SeriesDescription": "cmrr_mbepi_task-prf",
    "SeriesNumber": 8,
    "ShimSetting": [
      255,
      -12586,
      -8478,
      196,
      37,
      -59,
      4,
      18
    ],
    "SliceThickness": 2,
    "SliceTiming": [
      0,
      0.535,
      0.0875,
      0.6225,
      0.1775,
      0.7125,
      0.2675,
      0.8025,
      0.355,
      0.89,
      0.445,
      0,
      0.535,
      0.0875,
      0.6225,
      0.1775,
      0.7125,
      0.2675,
      0.8025,
      0.355,
      0.89,
      0.445,
      0,
      0.535,
      0.0875,
      0.6225,
      0.1775,
      0.7125,
      0.2675,
      0.8025,
      0.355,
      0.89,
      0.445,
      0,
      0.535,
      0.0875,
      0.6225,
      0.1775,
      0.7125,
      0.2675,
      0.8025,
      0.355,
      0.89,
      0.445,
      0,
      0.535,
      0.0875,
      0.6225,
      0.1775,
      0.7125,
      0.2675,
      0.8025,
      0.355,
      0.89,
      0.445,
      0,
      0.535,
      0.0875,
      0.6225,
      0.1775,
      0.7125,
      0.2675,
      0.8025,
      0.355,
      0.89,
      0.445
    ],
    "SoftwareVersions": "syngo_MR_E11",
    "SpacingBetweenSlices": 2,
    "StationName": "AWP166018",
    "TaskName": "prf",
    "TotalReadoutTime": 0.0597409,
    "TxRefAmp": 235.653,
    "WipMemBlock": "a45f056e-7254-4150-bcf3-9765752c24e9||Sequence: R016 ve11c/master r/8780670; Nov 27 2017 15:05:12 by eja",
    "acq_id": "PA",
    "dataset": "unknown",
    "dcmmeta_affine": [
      [
        -1.9943690299987793,
        -0.036552850157022476,
        -0.14545075595378876,
        112.59915924072266
      ],
      [
        -0.0032453425228595734,
        1.9497512578964233,
        -0.445487916469574,
        -69.6710433959961
      ],
      [
        -0.14993833005428314,
        0.4439976215362549,
        1.9443210363388062,
        -70.76173400878906
      ],
      [
        0.0,
        0.0,
        0.0,
        1.0
      ]
    ],
    "dcmmeta_reorient_transform": [
      [
        0.0,
        -1.0,
        0.0,
        103.0
      ],
      [
        1.0,
        0.0,
        0.0,
        0.0
      ],
      [
        0.0,
        0.0,
        1.0,
        0.0
      ],
      [
        0.0,
        0.0,
        0.0,
        1.0
      ]
    ],
    "dcmmeta_shape": [
      104,
      104,
      66,
      192
    ],
    "dcmmeta_slice_dim": 2,
    "dcmmeta_version": 0.6,
    "global": {
      "const": {
        "AccessionNumber": "jjizxsx9",
        "AcquisitionMatrix": [
          104,
          0,
          0,
          104
        ],
        "AngioFlag": "N",
        "BitsAllocated": 16,
        "BitsStored": 16,
        "BodyPartExamined": "BRAIN",
        "Columns": 936,
        "EchoNumbers": 1,
        "EchoTime": 37.0,
        "EchoTrainLength": 104,
        "FlipAngle": 68.0,
        "HighBit": 15,
        "ImageOrientationPatient": [
          0.99718453221082,
          0.00162267129405,
          -0.0749691647103,
          -0.0182764253168,
          0.97487563167389,
          -0.2219988176682
        ],
        "ImagePositionPatient": [
          -923.28576000254,
          -943.59992859154,
          222.04738535764
        ],
        "ImageType": [
          "ORIGINAL",
          "PRIMARY",
          "M",
          "MB",
          "ND",
          "MOSAIC"
        ],
        "ImagedNucleus": "1H",
        "ImagingFrequency": 123.191105,
        "InPlanePhaseEncodingDirection": "COL",
        "MRAcquisitionType": "2D",
        "MagneticFieldStrength": 3.0,
        "Manufacturer": "SIEMENS",
        "ManufacturerModelName": "Prisma",
        "Modality": "MR",
        "NumberOfAverages": 1.0,
        "NumberOfPhaseEncodingSteps": 104,
        "PercentPhaseFieldOfView": 100.0,
        "PercentSampling": 100.0,
        "PerformedProcedureStepStartTime": "163818.334000",
        "PhotometricInterpretation": "MONOCHROME2",
        "PixelBandwidth": 2290.0,
        "PixelRepresentation": 0,
        "PixelSpacing": [
          2.0,
          2.0
        ],
        "ProtocolName": "cmrr_mbepi_task-prf",
        "RepetitionTime": 1000.0,
        "Rows": 936,
        "SAR": 0.07010896385629,
        "SamplesPerPixel": 1,
        "ScanOptions": "FS",
        "ScanningSequence": "EP",
        "SequenceName": "epfid2d1_104",
        "SequenceVariant": [
          "SK",
          "SS"
        ],
        "SeriesDescription": "cmrr_mbepi_task-prf",
        "SeriesNumber": 8,
        "SeriesTime": "165730.519000",
        "SliceLocation": -61.461778967471,
        "SliceThickness": 2.0,
        "SmallestImagePixelValue": 0,
        "SoftwareVersions": "syngo MR E11",
        "SpacingBetweenSlices": 1.9999999731397,
        "SpecificCharacterSet": "ISO_IR 100",
        "StudyID": "1",
        "StudyTime": "163818.274000",
        "TransmitCoilName": "Body",
        "VariableFlipAngleFlag": "N",
        "WindowCenterWidthExplanation": "Algo1",
        "dBdt": 0.0
      },
      "slices": {}
    },
    "modality": "bold",
    "run_id": 1,
    "session_id": "nyu3t01",
    "subject_id": "wlsubj055",
    "task_id": "prf",
    "time": {
      "samples": {
        "AcquisitionNumber": [
          1,
          2,
          3,
          4,
          5,
          6,
          7,
          8,
          9,
          10,
          11,
          12,
          13,
          14,
          15,
          16,
          17,
          18,
          19,
          20,
          21,
          22,
          23,
          24,
          25,
          26,
          27,
          28,
          29,
          30,
          31,
          32,
          33,
          34,
          35,
          36,
          37,
          38,
          39,
          40,
          41,
          42,
          43,
          44,
          45,
          46,
          47,
          48,
          49,
          50,
          51,
          52,
          53,
          54,
          55,
          56,
          57,
          58,
          59,
          60,
          61,
          62,
          63,
          64,
          65,
          66,
          67,
          68,
          69,
          70,
          71,
          72,
          73,
          74,
          75,
          76,
          77,
          78,
          79,
          80,
          81,
          82,
          83,
          84,
          85,
          86,
          87,
          88,
          89,
          90,
          91,
          92,
          93,
          94,
          95,
          96,
          97,
          98,
          99,
          100,
          101,
          102,
          103,
          104,
          105,
          106,
          107,
          108,
          109,
          110,
          111,
          112,
          113,
          114,
          115,
          116,
          117,
          118,
          119,
          120,
          121,
          122,
          123,
          124,
          125,
          126,
          127,
          128,
          129,
          130,
          131,
          132,
          133,
          134,
          135,
          136,
          137,
          138,
          139,
          140,
          141,
          142,
          143,
          144,
          145,
          146,
          147,
          148,
          149,
          150,
          151,
          152,
          153,
          154,
          155,
          156,
          157,
          158,
          159,
          160,
          161,
          162,
          163,
          164,
          165,
          166,
          167,
          168,
          169,
          170,
          171,
          172,
          173,
          174,
          175,
          176,
          177,
          178,
          179,
          180,
          181,
          182,
          183,
          184,
          185,
          186,
          187,
          188,
          189,
          190,
          191,
          192
        ],
        "AcquisitionTime": [
          "165633.902500",
          "165634.902500",
          "165635.902500",
          "165636.902500",
          "165637.902500",
          "165638.902500",
          "165639.902500",
          "165640.902500",
          "165641.902500",
          "165642.902500",
          "165643.902500",
          "165644.902500",
          "165645.902500",
          "165646.902500",
          "165647.902500",
          "165648.902500",
          "165649.902500",
          "165650.902500",
          "165651.902500",
          "165652.902500",
          "165653.902500",
          "165654.902500",
          "165655.902500",
          "165656.902500",
          "165657.902500",
          "165658.902500",
          "165659.902500",
          "165700.902500",
          "165701.902500",
          "165702.902500",
          "165703.902500",
          "165704.902500",
          "165705.902500",
          "165706.902500",
          "165707.902500",
          "165708.902500",
          "165709.902500",
          "165710.902500",
          "165711.902500",
          "165712.902500",
          "165713.902500",
          "165714.902500",
          "165715.902500",
          "165716.902500",
          "165717.902500",
          "165718.902500",
          "165719.902500",
          "165720.902500",
          "165721.902500",
          "165722.902500",
          "165723.902500",
          "165724.902500",
          "165725.902500",
          "165726.902500",
          "165727.902500",
          "165728.902500",
          "165729.902500",
          "165730.902500",
          "165731.902500",
          "165732.902500",
          "165733.902500",
          "165734.902500",
          "165735.902500",
          "165736.902500",
          "165737.902500",
          "165738.902500",
          "165739.902500",
          "165740.902500",
          "165741.902500",
          "165742.902500",
          "165743.902500",
          "165744.902500",
          "165745.902500",
          "165746.902500",
          "165747.902500",
          "165748.902500",
          "165749.902500",
          "165750.902500",
          "165751.902500",
          "165752.902500",
          "165753.902500",
          "165754.902500",
          "165755.902500",
          "165756.902500",
          "165757.902500",
          "165758.902500",
          "165759.902500",
          "165800.902500",
          "165801.902500",
          "165802.902500",
          "165803.902500",
          "165804.902500",
          "165805.902500",
          "165806.902500",
          "165807.902500",
          "165808.902500",
          "165809.902500",
          "165810.902500",
          "165811.902500",
          "165812.902500",
          "165813.902500",
          "165814.902500",
          "165815.902500",
          "165816.902500",
          "165817.902500",
          "165818.902500",
          "165819.902500",
          "165820.902500",
          "165821.902500",
          "165822.902500",
          "165823.902500",
          "165824.902500",
          "165825.902500",
          "165826.902500",
          "165827.902500",
          "165828.902500",
          "165829.902500",
          "165830.902500",
          "165831.902500",
          "165832.902500",
          "165833.902500",
          "165834.902500",
          "165835.902500",
          "165836.902500",
          "165837.902500",
          "165838.902500",
          "165839.902500",
          "165840.902500",
          "165841.902500",
          "165842.902500",
          "165843.902500",
          "165844.902500",
          "165845.902500",
          "165846.902500",
          "165847.902500",
          "165848.902500",
          "165849.902500",
          "165850.902500",
          "165851.902500",
          "165852.902500",
          "165853.902500",
          "165854.902500",
          "165855.902500",
          "165856.902500",
          "165857.902500",
          "165858.902500",
          "165859.902500",
          "165900.902500",
          "165901.902500",
          "165902.902500",
          "165903.902500",
          "165904.902500",
          "165905.902500",
          "165906.902500",
          "165907.902500",
          "165908.902500",
          "165909.902500",
          "165910.902500",
          "165911.902500",
          "165912.902500",
          "165913.902500",
          "165914.902500",
          "165915.902500",
          "165916.902500",
          "165917.902500",
          "165918.902500",
          "165919.902500",
          "165920.902500",
          "165921.902500",
          "165922.902500",
          "165923.902500",
          "165924.902500",
          "165925.902500",
          "165926.902500",
          "165927.902500",
          "165928.902500",
          "165929.902500",
          "165930.902500",
          "165931.902500",
          "165932.902500",
          "165933.902500",
          "165934.902500",
          "165935.902500",
          "165936.902500",
          "165937.902500",
          "165938.902500",
          "165939.902500",
          "165940.902500",
          "165941.902500",
          "165942.902500",
          "165943.902500",
          "165944.902500"
        ],
        "ContentTime": [
          "165730.522000",
          "165730.526000",
          "165730.529000",
          "165735.495000",
          "165735.498000",
          "165735.501000",
          "165735.504000",
          "165735.507000",
          "165735.510000",
          "165735.512000",
          "165740.495000",
          "165740.498000",
          "165740.501000",
          "165740.504000",
          "165740.507000",
          "165740.510000",
          "165740.512000",
          "165745.496000",
          "165745.499000",
          "165745.502000",
          "165745.505000",
          "165745.508000",
          "165745.510000",
          "165745.513000",
          "165750.495000",
          "165750.498000",
          "165750.501000",
          "165750.504000",
          "165750.507000",
          "165750.510000",
          "165750.512000",
          "165755.495000",
          "165755.498000",
          "165755.506000",
          "165755.509000",
          "165755.512000",
          "165755.515000",
          "165755.518000",
          "165800.495000",
          "165800.498000",
          "165800.501000",
          "165800.504000",
          "165800.507000",
          "165800.509000",
          "165800.512000",
          "165800.515000",
          "165805.495000",
          "165805.516000",
          "165805.519000",
          "165805.526000",
          "165805.529000",
          "165805.531000",
          "165805.534000",
          "165810.495000",
          "165810.498000",
          "165810.501000",
          "165810.504000",
          "165810.510000",
          "165810.513000",
          "165810.516000",
          "165815.495000",
          "165815.498000",
          "165815.501000",
          "165815.504000",
          "165815.507000",
          "165815.510000",
          "165815.513000",
          "165820.496000",
          "165820.499000",
          "165820.502000",
          "165820.505000",
          "165820.508000",
          "165820.511000",
          "165820.514000",
          "165825.495000",
          "165825.498000",
          "165825.501000",
          "165825.504000",
          "165825.507000",
          "165825.509000",
          "165825.512000",
          "165830.495000",
          "165830.498000",
          "165830.501000",
          "165830.504000",
          "165830.507000",
          "165830.510000",
          "165830.512000",
          "165835.495000",
          "165835.498000",
          "165835.501000",
          "165835.504000",
          "165835.507000",
          "165835.510000",
          "165835.512000",
          "165840.495000",
          "165840.498000",
          "165840.501000",
          "165840.504000",
          "165840.507000",
          "165840.510000",
          "165840.513000",
          "165845.495000",
          "165845.498000",
          "165845.501000",
          "165845.504000",
          "165845.507000",
          "165845.510000",
          "165845.512000",
          "165850.495000",
          "165850.498000",
          "165850.501000",
          "165850.504000",
          "165850.507000",
          "165850.510000",
          "165850.523000",
          "165855.496000",
          "165855.499000",
          "165855.502000",
          "165855.505000",
          "165855.508000",
          "165855.511000",
          "165855.514000",
          "165900.495000",
          "165900.498000",
          "165900.501000",
          "165900.504000",
          "165900.507000",
          "165900.509000",
          "165900.512000",
          "165900.515000",
          "165905.495000",
          "165905.498000",
          "165905.501000",
          "165905.504000",
          "165905.507000",
          "165905.509000",
          "165905.512000",
          "165910.495000",
          "165910.498000",
          "165910.501000",
          "165910.504000",
          "165910.507000",
          "165910.510000",
          "165910.513000",
          "165915.495000",
          "165915.498000",
          "165915.501000",
          "165915.504000",
          "165915.507000",
          "165915.510000",
          "165915.512000",
          "165920.495000",
          "165920.498000",
          "165920.501000",
          "165920.504000",
          "165920.507000",
          "165920.510000",
          "165920.513000",
          "165925.495000",
          "165925.498000",
          "165925.501000",
          "165925.504000",
          "165925.507000",
          "165925.510000",
          "165925.513000",
          "165930.496000",
          "165930.499000",
          "165930.502000",
          "165930.505000",
          "165930.508000",
          "165930.511000",
          "165930.513000",
          "165935.495000",
          "165935.498000",
          "165935.501000",
          "165935.504000",
          "165935.507000",
          "165935.510000",
          "165935.513000",
          "165940.495000",
          "165940.498000",
          "165940.501000",
          "165940.504000",
          "165940.507000",
          "165940.510000",
          "165945.495000",
          "165945.498000",
          "165945.501000",
          "165945.504000",
          "165945.507000",
          "165946.227000"
        ],
        "InstanceCreationTime": [
          "165730.522000",
          "165730.526000",
          "165730.529000",
          "165735.495000",
          "165735.498000",
          "165735.501000",
          "165735.504000",
          "165735.507000",
          "165735.510000",
          "165735.512000",
          "165740.495000",
          "165740.498000",
          "165740.501000",
          "165740.504000",
          "165740.507000",
          "165740.510000",
          "165740.512000",
          "165745.496000",
          "165745.499000",
          "165745.502000",
          "165745.505000",
          "165745.508000",
          "165745.510000",
          "165745.513000",
          "165750.495000",
          "165750.498000",
          "165750.501000",
          "165750.504000",
          "165750.507000",
          "165750.510000",
          "165750.512000",
          "165755.495000",
          "165755.498000",
          "165755.506000",
          "165755.509000",
          "165755.512000",
          "165755.515000",
          "165755.518000",
          "165800.495000",
          "165800.498000",
          "165800.501000",
          "165800.504000",
          "165800.507000",
          "165800.509000",
          "165800.512000",
          "165800.515000",
          "165805.495000",
          "165805.516000",
          "165805.519000",
          "165805.526000",
          "165805.529000",
          "165805.531000",
          "165805.534000",
          "165810.495000",
          "165810.498000",
          "165810.501000",
          "165810.504000",
          "165810.510000",
          "165810.513000",
          "165810.516000",
          "165815.495000",
          "165815.498000",
          "165815.501000",
          "165815.504000",
          "165815.507000",
          "165815.510000",
          "165815.513000",
          "165820.496000",
          "165820.499000",
          "165820.502000",
          "165820.505000",
          "165820.508000",
          "165820.511000",
          "165820.514000",
          "165825.495000",
          "165825.498000",
          "165825.501000",
          "165825.504000",
          "165825.507000",
          "165825.509000",
          "165825.512000",
          "165830.495000",
          "165830.498000",
          "165830.501000",
          "165830.504000",
          "165830.507000",
          "165830.510000",
          "165830.512000",
          "165835.495000",
          "165835.498000",
          "165835.501000",
          "165835.504000",
          "165835.507000",
          "165835.510000",
          "165835.512000",
          "165840.495000",
          "165840.498000",
          "165840.501000",
          "165840.504000",
          "165840.507000",
          "165840.510000",
          "165840.513000",
          "165845.495000",
          "165845.498000",
          "165845.501000",
          "165845.504000",
          "165845.507000",
          "165845.510000",
          "165845.512000",
          "165850.495000",
          "165850.498000",
          "165850.501000",
          "165850.504000",
          "165850.507000",
          "165850.510000",
          "165850.523000",
          "165855.496000",
          "165855.499000",
          "165855.502000",
          "165855.505000",
          "165855.508000",
          "165855.511000",
          "165855.514000",
          "165900.495000",
          "165900.498000",
          "165900.501000",
          "165900.504000",
          "165900.507000",
          "165900.509000",
          "165900.512000",
          "165900.515000",
          "165905.495000",
          "165905.498000",
          "165905.501000",
          "165905.504000",
          "165905.507000",
          "165905.509000",
          "165905.512000",
          "165910.495000",
          "165910.498000",
          "165910.501000",
          "165910.504000",
          "165910.507000",
          "165910.510000",
          "165910.513000",
          "165915.495000",
          "165915.498000",
          "165915.501000",
          "165915.504000",
          "165915.507000",
          "165915.510000",
          "165915.512000",
          "165920.495000",
          "165920.498000",
          "165920.501000",
          "165920.504000",
          "165920.507000",
          "165920.510000",
          "165920.513000",
          "165925.495000",
          "165925.498000",
          "165925.501000",
          "165925.504000",
          "165925.507000",
          "165925.510000",
          "165925.513000",
          "165930.496000",
          "165930.499000",
          "165930.502000",
          "165930.505000",
          "165930.508000",
          "165930.511000",
          "165930.513000",
          "165935.495000",
          "165935.498000",
          "165935.501000",
          "165935.504000",
          "165935.507000",
          "165935.510000",
          "165935.513000",
          "165940.495000",
          "165940.498000",
          "165940.501000",
          "165940.504000",
          "165940.507000",
          "165940.510000",
          "165945.495000",
          "165945.498000",
          "165945.501000",
          "165945.504000",
          "165945.507000",
          "165946.227000"
        ],
        "InstanceNumber": [
          1,
          2,
          3,
          4,
          5,
          6,
          7,
          8,
          9,
          10,
          11,
          12,
          13,
          14,
          15,
          16,
          17,
          18,
          19,
          20,
          21,
          22,
          23,
          24,
          25,
          26,
          27,
          28,
          29,
          30,
          31,
          32,
          33,
          34,
          35,
          36,
          37,
          38,
          39,
          40,
          41,
          42,
          43,
          44,
          45,
          46,
          47,
          48,
          49,
          50,
          51,
          52,
          53,
          54,
          55,
          56,
          57,
          58,
          59,
          60,
          61,
          62,
          63,
          64,
          65,
          66,
          67,
          68,
          69,
          70,
          71,
          72,
          73,
          74,
          75,
          76,
          77,
          78,
          79,
          80,
          81,
          82,
          83,
          84,
          85,
          86,
          87,
          88,
          89,
          90,
          91,
          92,
          93,
          94,
          95,
          96,
          97,
          98,
          99,
          100,
          101,
          102,
          103,
          104,
          105,
          106,
          107,
          108,
          109,
          110,
          111,
          112,
          113,
          114,
          115,
          116,
          117,
          118,
          119,
          120,
          121,
          122,
          123,
          124,
          125,
          126,
          127,
          128,
          129,
          130,
          131,
          132,
          133,
          134,
          135,
          136,
          137,
          138,
          139,
          140,
          141,
          142,
          143,
          144,
          145,
          146,
          147,
          148,
          149,
          150,
          151,
          152,
          153,
          154,
          155,
          156,
          157,
          158,
          159,
          160,
          161,
          162,
          163,
          164,
          165,
          166,
          167,
          168,
          169,
          170,
          171,
          172,
          173,
          174,
          175,
          176,
          177,
          178,
          179,
          180,
          181,
          182,
          183,
          184,
          185,
          186,
          187,
          188,
          189,
          190,
          191,
          192
        ],
        "LargestImagePixelValue": [
          30049,
          29802,
          29403,
          29625,
          29391,
          29678,
          29983,
          29415,
          29457,
          29431,
          29785,
          29705,
          29576,
          29618,
          29533,
          31225,
          30249,
          29885,
          30362,
          29992,
          30006,
          29755,
          29589,
          29322,
          28846,
          28932,
          27559,
          28346,
          28052,
          27843,
          27632,
          28683,
          28486,
          28520,
          27878,
          28569,
          28658,
          28860,
          28587,
          28398,
          29462,
          27649,
          27845,
          27565,
          27456,
          27545,
          27280,
          27794,
          27757,
          28234,
          28454,
          28678,
          28195,
          27974,
          27572,
          27138,
          27225,
          27200,
          27286,
          27527,
          27209,
          27010,
          27735,
          27369,
          27183,
          27857,
          28506,
          28419,
          29287,
          29681,
          29529,
          29565,
          28809,
          28817,
          27443,
          27450,
          27476,
          27332,
          27294,
          28425,
          28352,
          27879,
          28346,
          28168,
          28413,
          28447,
