{
  "aor": 0.0008180729166666666,
  "aqi": 0.009574841822916668,
  "bids_meta": {
    "AcquisitionMatrixPE": 104,
    "AcquisitionNumber": 1,
    "AcquisitionTime": "10:23:29.805000",
    "BandwidthPerPixelPhaseEncode": 16.578,
    "BaseResolution": 104,
    "BodyPartExamined": "BRAIN",
    "CogAtlasID": "TODO",
    "ConsistencyInfo": "N4_VE11C_LATEST_20160120",
    "ConversionSoftware": "dcm2niix",
    "ConversionSoftwareVersion": "v1.0.20190902",
    "DerivedVendorReportedEchoSpacing": 0.000580009,
    "DeviceSerialNumber": "166018",
    "DwellTime": 2.1e-06,
    "EchoTime": 0.037,
    "EchoTrainLength": 104,
    "EffectiveEchoSpacing": 0.000580009,
    "FlipAngle": 68,
    "ImageComments": "Unaliased_MB6_PE3_LB",
    "ImageOrientationPatientDICOM": [
      0.999273,
      -0.0141729,
      -0.0353937,
      0.00837168,
      0.987248,
      -0.15897
    ],
    "ImageType": [
      "ORIGINAL",
      "PRIMARY",
      "M",
      "MB",
      "ND",
      "MOSAIC"
    ],
    "ImagingFrequency": 123.187,
    "InPlanePhaseEncodingDirectionDICOM": "COL",
    "InstitutionAddress": "Washington_Place_6_NYC_NYC_US_10003",
    "InstitutionName": "NYU_Center_for_Brain_Imaging",
    "InstitutionalDepartmentName": "Department",
    "MRAcquisitionType": "2D",
    "MagneticFieldStrength": 3,
    "Manufacturer": "Siemens",
    "ManufacturersModelName": "Prisma",
    "Modality": "MR",
    "MultibandAccelerationFactor": 6,
    "NumberOfVolumes": 192,
    "PartialFourier": 1,
    "PatientPosition": "HFS",
    "PercentPhaseFOV": 100,
    "PhaseEncodingDirection": "j",
    "PhaseEncodingSteps": 104,
    "PhaseResolution": 1,
    "PixelBandwidth": 2290,
    "ProcedureStepDescription": "Investigators_Winawer",
    "ProtocolName": "cmrr_mbepi_s6_2mm_66sl_PA_TR1.0",
    "PulseSequenceDetails": "%CustomerSeq%_cmrr_mbep2d_bold",
    "ReceiveCoilActiveElements": "HC1-7",
    "ReceiveCoilName": "HeadNeck_64",
    "ReconMatrixPE": 104,
    "RepetitionTime": 1,
    "SAR": 0.0793403,
    "ScanOptions": "FS",
    "ScanningSequence": "EP",
    "SequenceName": "epfid2d1_104",
    "SequenceVariant": "SK_SS",
    "SeriesDescription": "cmrr_mbepi_s6_2mm_66sl_PA_TR1.0",
    "SeriesNumber": 10,
    "ShimSetting": [
      248,
      -12565,
      -8487,
      527,
      -1,
      -151,
      8,
      39
    ],
    "SliceThickness": 2,
    "SliceTiming": [
      0,
      0.535,
      0.09,
      0.625,
      0.18,
      0.7125,
      0.2675,
      0.8025,
      0.3575,
      0.8925,
      0.445,
      0,
      0.535,
      0.09,
      0.625,
      0.18,
      0.7125,
      0.2675,
      0.8025,
      0.3575,
      0.8925,
      0.445,
      0,
      0.535,
      0.09,
      0.625,
      0.18,
      0.7125,
      0.2675,
      0.8025,
      0.3575,
      0.8925,
      0.445,
      0,
      0.535,
      0.09,
      0.625,
      0.18,
      0.7125,
      0.2675,
      0.8025,
      0.3575,
      0.8925,
      0.445,
      0,
      0.535,
      0.09,
      0.625,
      0.18,
      0.7125,
      0.2675,
      0.8025,
      0.3575,
      0.8925,
      0.445,
      0,
      0.535,
      0.09,
      0.625,
      0.18,
      0.7125,
      0.2675,
      0.8025,
      0.3575,
      0.8925,
      0.445
    ],
    "SoftwareVersions": "syngo_MR_E11",
    "SpacingBetweenSlices": 2,
    "StationName": "AWP166018",
    "TaskName": "prf",
    "TotalReadoutTime": 0.0597409,
    "TxRefAmp": 250.183,
    "WipMemBlock": "723ce920-4150-40df-9beb-b968994d7564||Sequence: ve11c/master r/ab69a6c; Apr 19 2017 09:47:47 by eja",
    "acq_id": "PA",
    "dataset": "unknown",
    "dcmmeta_affine": [
      [
        -1.9985458850860596,
        0.01674336940050125,
        -0.07439078390598297,
        109.00907897949219
      ],
      [
        0.02834574691951275,
        1.974495768547058,
        -0.31711673736572266,
        -70.20941925048828
      ],
      [
        -0.07078734040260315,
        0.31794050335884094,
        1.973297357559204,
        -66.471923828125
      ],
      [
        0.0,
        0.0,
        0.0,
        1.0
      ]
    ],
    "dcmmeta_reorient_transform": [
      [
        0.0,
        -1.0,
        0.0,
        103.0
      ],
      [
        1.0,
        0.0,
        0.0,
        0.0
      ],
      [
        0.0,
        0.0,
        1.0,
        0.0
      ],
      [
        0.0,
        0.0,
        0.0,
        1.0
      ]
    ],
    "dcmmeta_shape": [
      104,
      104,
      66,
      192
    ],
    "dcmmeta_slice_dim": 2,
    "dcmmeta_version": 0.6,
    "global": {
      "const": {
        "AccessionNumber": "j65cqsnu",
        "AcquisitionMatrix": [
          104,
          0,
          0,
          104
        ],
        "AngioFlag": "N",
        "BitsAllocated": 16,
        "BitsStored": 16,
        "BodyPartExamined": "BRAIN",
        "Columns": 936,
        "EchoNumbers": 1,
        "EchoTime": 37.0,
        "EchoTrainLength": 104,
        "FlipAngle": 68.0,
        "HighBit": 15,
        "ImageOrientationPatient": [
          0.99927294453127,
          -0.0141728730628,
          -0.0353936717078,
          0.00837168446251,
          0.98724787790732,
          -0.1589702565474
        ],
        "ImagePositionPatient": [
          -949.09398090774,
          -942.76204692646,
          127.98673630363
        ],
        "ImageType": [
          "ORIGINAL",
          "PRIMARY",
          "M",
          "MB",
          "ND",
          "MOSAIC"
        ],
        "ImagedNucleus": "1H",
        "ImagingFrequency": 123.187234,
        "InPlanePhaseEncodingDirection": "COL",
        "MRAcquisitionType": "2D",
        "MagneticFieldStrength": 3.0,
        "Manufacturer": "SIEMENS",
        "ManufacturerModelName": "Prisma",
        "Modality": "MR",
        "NumberOfAverages": 1.0,
        "NumberOfPhaseEncodingSteps": 104,
        "PercentPhaseFieldOfView": 100.0,
        "PercentSampling": 100.0,
        "PerformedProcedureStepStartTime": "100842.703000",
        "PhotometricInterpretation": "MONOCHROME2",
        "PixelBandwidth": 2290.0,
        "PixelRepresentation": 0,
        "PixelSpacing": [
          2.0,
          2.0
        ],
        "ProtocolName": "cmrr_mbepi_s6_2mm_66sl_PA_TR1.0",
        "RepetitionTime": 1000.0,
        "Rows": 936,
        "SAR": 0.07934028726642,
        "SamplesPerPixel": 1,
        "ScanOptions": "FS",
        "ScanningSequence": "EP",
        "SequenceName": "epfid2d1_104",
        "SequenceVariant": [
          "SK",
          "SS"
        ],
        "SeriesDescription": "cmrr_mbepi_s6_2mm_66sl_PA_TR1.0",
        "SeriesNumber": 10,
        "SeriesTime": "102442.226000",
        "SliceLocation": -58.506785531017,
        "SliceThickness": 2.0,
        "SmallestImagePixelValue": 0,
        "SoftwareVersions": "syngo MR E11",
        "SpacingBetweenSlices": 1.9999999258799,
        "SpecificCharacterSet": "ISO_IR 100",
        "StudyID": "3",
        "StudyTime": "100842.649000",
        "TransmitCoilName": "Body",
        "VariableFlipAngleFlag": "N",
        "WindowCenterWidthExplanation": "Algo1",
        "dBdt": 0.0
      },
      "slices": {}
    },
    "modality": "bold",
    "run_id": 2,
    "session_id": "nyu3t01",
    "subject_id": "wlsubj042",
    "task_id": "prf",
    "time": {
      "samples": {
        "AcquisitionNumber": [
          1,
          2,
          3,
          4,
          5,
          6,
          7,
          8,
          9,
          10,
          11,
          12,
          13,
          14,
          15,
          16,
          17,
          18,
          19,
          20,
          21,
          22,
          23,
          24,
          25,
          26,
          27,
          28,
          29,
          30,
          31,
          32,
          33,
          34,
          35,
          36,
          37,
          38,
          39,
          40,
          41,
          42,
          43,
          44,
          45,
          46,
          47,
          48,
          49,
          50,
          51,
          52,
          53,
          54,
          55,
          56,
          57,
          58,
          59,
          60,
          61,
          62,
          63,
          64,
          65,
          66,
          67,
          68,
          69,
          70,
          71,
          72,
          73,
          74,
          75,
          76,
          77,
          78,
          79,
          80,
          81,
          82,
          83,
          84,
          85,
          86,
          87,
          88,
          89,
          90,
          91,
          92,
          93,
          94,
          95,
          96,
          97,
          98,
          99,
          100,
          101,
          102,
          103,
          104,
          105,
          106,
          107,
          108,
          109,
          110,
          111,
          112,
          113,
          114,
          115,
          116,
          117,
          118,
          119,
          120,
          121,
          122,
          123,
          124,
          125,
          126,
          127,
          128,
          129,
          130,
          131,
          132,
          133,
          134,
          135,
          136,
          137,
          138,
          139,
          140,
          141,
          142,
          143,
          144,
          145,
          146,
          147,
          148,
          149,
          150,
          151,
          152,
          153,
          154,
          155,
          156,
          157,
          158,
          159,
          160,
          161,
          162,
          163,
          164,
          165,
          166,
          167,
          168,
          169,
          170,
          171,
          172,
          173,
          174,
          175,
          176,
          177,
          178,
          179,
          180,
          181,
          182,
          183,
          184,
          185,
          186,
          187,
          188,
          189,
          190,
          191,
          192
        ],
        "AcquisitionTime": [
          "102329.805000",
          "102330.805000",
          "102331.805000",
          "102332.805000",
          "102333.805000",
          "102334.805000",
          "102335.805000",
          "102336.805000",
          "102337.805000",
          "102338.805000",
          "102339.805000",
          "102340.805000",
          "102341.805000",
          "102342.805000",
          "102343.805000",
          "102344.805000",
          "102345.805000",
          "102346.805000",
          "102347.805000",
          "102348.805000",
          "102349.805000",
          "102350.805000",
          "102351.805000",
          "102352.805000",
          "102353.805000",
          "102354.805000",
          "102355.805000",
          "102356.805000",
          "102357.805000",
          "102358.805000",
          "102359.805000",
          "102400.805000",
          "102401.805000",
          "102402.805000",
          "102403.805000",
          "102404.805000",
          "102405.805000",
          "102406.805000",
          "102407.805000",
          "102408.805000",
          "102409.805000",
          "102410.805000",
          "102411.805000",
          "102412.805000",
          "102413.805000",
          "102414.805000",
          "102415.805000",
          "102416.805000",
          "102417.805000",
          "102418.805000",
          "102419.805000",
          "102420.805000",
          "102421.805000",
          "102422.805000",
          "102423.805000",
          "102424.805000",
          "102425.805000",
          "102426.805000",
          "102427.805000",
          "102428.805000",
          "102429.805000",
          "102430.805000",
          "102431.805000",
          "102432.805000",
          "102433.805000",
          "102434.805000",
          "102435.805000",
          "102436.805000",
          "102437.805000",
          "102438.805000",
          "102439.805000",
          "102440.805000",
          "102441.805000",
          "102442.805000",
          "102443.805000",
          "102444.805000",
          "102445.805000",
          "102446.805000",
          "102447.805000",
          "102448.805000",
          "102449.805000",
          "102450.805000",
          "102451.805000",
          "102452.805000",
          "102453.805000",
          "102454.805000",
          "102455.805000",
          "102456.805000",
          "102457.805000",
          "102458.805000",
          "102459.805000",
          "102500.805000",
          "102501.805000",
          "102502.805000",
          "102503.805000",
          "102504.805000",
          "102505.805000",
          "102506.805000",
          "102507.805000",
          "102508.805000",
          "102509.805000",
          "102510.805000",
          "102511.805000",
          "102512.805000",
          "102513.805000",
          "102514.805000",
          "102515.805000",
          "102516.805000",
          "102517.805000",
          "102518.805000",
          "102519.805000",
          "102520.805000",
          "102521.805000",
          "102522.805000",
          "102523.805000",
          "102524.805000",
          "102525.805000",
          "102526.805000",
          "102527.805000",
          "102528.805000",
          "102529.805000",
          "102530.805000",
          "102531.805000",
          "102532.805000",
          "102533.805000",
          "102534.805000",
          "102535.805000",
          "102536.805000",
          "102537.805000",
          "102538.805000",
          "102539.805000",
          "102540.805000",
          "102541.805000",
          "102542.805000",
          "102543.805000",
          "102544.805000",
          "102545.805000",
          "102546.805000",
          "102547.805000",
          "102548.805000",
          "102549.805000",
          "102550.805000",
          "102551.805000",
          "102552.805000",
          "102553.805000",
          "102554.805000",
          "102555.805000",
          "102556.805000",
          "102557.805000",
          "102558.805000",
          "102559.805000",
          "102600.805000",
          "102601.805000",
          "102602.805000",
          "102603.805000",
          "102604.805000",
          "102605.805000",
          "102606.805000",
          "102607.805000",
          "102608.805000",
          "102609.805000",
          "102610.805000",
          "102611.805000",
          "102612.805000",
          "102613.805000",
          "102614.805000",
          "102615.805000",
          "102616.805000",
          "102617.805000",
          "102618.805000",
          "102619.805000",
          "102620.805000",
          "102621.805000",
          "102622.805000",
          "102623.805000",
          "102624.805000",
          "102625.805000",
          "102626.805000",
          "102627.805000",
          "102628.805000",
          "102629.805000",
          "102630.805000",
          "102631.805000",
          "102632.805000",
          "102633.805000",
          "102634.805000",
          "102635.805000",
          "102636.805000",
          "102637.805000",
          "102638.805000",
          "102639.805000",
          "102640.805000"
        ],
        "ContentTime": [
          "102442.228000",
          "102442.232000",
          "102442.235000",
          "102442.238000",
          "102442.242000",
          "102442.245000",
          "102442.248000",
          "102442.251000",
          "102442.254000",
          "102442.257000",
          "102442.260000",
          "102442.263000",
          "102442.266000",
          "102442.275000",
          "102442.278000",
          "102442.281000",
          "102442.284000",
          "102442.291000",
          "102442.294000",
          "102442.297000",
          "102442.300000",
          "102442.303000",
          "102442.307000",
          "102442.310000",
          "102442.313000",
          "102502.195000",
          "102502.198000",
          "102502.201000",
          "102502.204000",
          "102502.207000",
          "102502.211000",
          "102502.214000",
          "102502.216000",
          "102502.220000",
          "102502.223000",
          "102502.226000",
          "102502.229000",
          "102502.232000",
          "102502.235000",
          "102502.238000",
          "102502.241000",
          "102502.244000",
          "102502.247000",
          "102502.250000",
          "102502.253000",
          "102502.256000",
          "102502.259000",
          "102502.262000",
          "102502.266000",
          "102502.269000",
          "102502.272000",
          "102502.275000",
          "102502.278000",
          "102522.194000",
          "102522.197000",
          "102522.200000",
          "102522.203000",
          "102522.206000",
          "102522.210000",
          "102522.223000",
          "102522.226000",
          "102522.234000",
          "102522.237000",
          "102522.240000",
          "102522.243000",
          "102522.246000",
          "102522.249000",
          "102522.252000",
          "102522.255000",
          "102522.258000",
          "102522.261000",
          "102522.264000",
          "102522.267000",
          "102522.270000",
          "102522.274000",
          "102522.279000",
          "102522.285000",
          "102522.288000",
          "102522.291000",
          "102522.295000",
          "102522.298000",
          "102542.195000",
          "102542.198000",
          "102542.201000",
          "102542.204000",
          "102542.207000",
          "102542.211000",
          "102542.214000",
          "102542.217000",
          "102542.220000",
          "102542.223000",
          "102542.226000",
          "102542.229000",
          "102542.232000",
          "102542.235000",
          "102542.239000",
          "102542.242000",
          "102542.245000",
          "102542.248000",
          "102542.251000",
          "102542.254000",
          "102542.257000",
          "102542.260000",
          "102542.263000",
          "102542.266000",
          "102542.269000",
          "102542.272000",
          "102542.275000",
          "102542.286000",
          "102542.289000",
          "102602.195000",
          "102602.198000",
          "102602.201000",
          "102602.204000",
          "102602.207000",
          "102602.211000",
          "102602.214000",
          "102602.217000",
          "102602.226000",
          "102602.229000",
          "102602.233000",
          "102602.236000",
          "102602.239000",
          "102602.242000",
          "102602.245000",
          "102602.248000",
          "102602.251000",
          "102602.254000",
          "102602.257000",
          "102602.260000",
          "102602.263000",
          "102602.266000",
          "102602.269000",
          "102602.272000",
          "102602.275000",
          "102602.278000",
          "102602.281000",
          "102602.284000",
          "102622.195000",
          "102622.198000",
          "102622.202000",
          "102622.205000",
          "102622.208000",
          "102622.211000",
          "102622.214000",
          "102622.217000",
          "102622.220000",
          "102622.224000",
          "102622.227000",
          "102622.230000",
          "102622.233000",
          "102622.236000",
          "102622.239000",
          "102622.242000",
          "102622.245000",
          "102622.248000",
          "102622.251000",
          "102622.254000",
          "102622.257000",
          "102622.261000",
          "102622.264000",
          "102622.267000",
          "102622.270000",
          "102622.273000",
          "102622.276000",
          "102622.279000",
          "102642.195000",
          "102642.198000",
          "102642.201000",
          "102642.205000",
          "102642.209000",
          "102642.212000",
          "102642.215000",
          "102642.218000",
          "102642.221000",
          "102642.230000",
          "102642.237000",
          "102642.246000",
          "102642.250000",
          "102642.253000",
          "102642.256000",
          "102642.259000",
          "102642.262000",
          "102642.265000",
          "102642.268000",
          "102642.272000",
          "102642.275000",
          "102642.278000",
          "102642.281000",
          "102642.284000",
          "102642.287000",
          "102642.354000"
        ],
        "InstanceCreationTime": [
          "102442.228000",
          "102442.232000",
          "102442.235000",
          "102442.238000",
          "102442.242000",
          "102442.245000",
          "102442.248000",
          "102442.251000",
          "102442.254000",
          "102442.257000",
          "102442.260000",
          "102442.263000",
          "102442.266000",
          "102442.275000",
          "102442.278000",
          "102442.281000",
          "102442.284000",
          "102442.291000",
          "102442.294000",
          "102442.297000",
          "102442.300000",
          "102442.303000",
          "102442.307000",
          "102442.310000",
          "102442.313000",
          "102502.195000",
          "102502.198000",
          "102502.201000",
          "102502.204000",
          "102502.207000",
          "102502.211000",
          "102502.214000",
          "102502.216000",
          "102502.220000",
          "102502.223000",
          "102502.226000",
          "102502.229000",
          "102502.232000",
          "102502.235000",
          "102502.238000",
          "102502.241000",
          "102502.244000",
          "102502.247000",
          "102502.250000",
          "102502.253000",
          "102502.256000",
          "102502.259000",
          "102502.262000",
          "102502.266000",
          "102502.269000",
          "102502.272000",
          "102502.275000",
          "102502.278000",
          "102522.194000",
          "102522.197000",
          "102522.200000",
          "102522.203000",
          "102522.206000",
          "102522.210000",
          "102522.223000",
          "102522.226000",
          "102522.234000",
          "102522.237000",
          "102522.240000",
          "102522.243000",
          "102522.246000",
          "102522.249000",
          "102522.252000",
          "102522.255000",
          "102522.258000",
          "102522.261000",
          "102522.264000",
          "102522.267000",
          "102522.270000",
          "102522.274000",
          "102522.279000",
          "102522.285000",
          "102522.288000",
          "102522.291000",
          "102522.295000",
          "102522.298000",
          "102542.195000",
          "102542.198000",
          "102542.201000",
          "102542.204000",
          "102542.207000",
          "102542.211000",
          "102542.214000",
          "102542.217000",
          "102542.220000",
          "102542.223000",
          "102542.226000",
          "102542.229000",
          "102542.232000",
          "102542.235000",
          "102542.239000",
          "102542.242000",
          "102542.245000",
          "102542.248000",
          "102542.251000",
          "102542.254000",
          "102542.257000",
          "102542.260000",
          "102542.263000",
          "102542.266000",
          "102542.269000",
          "102542.272000",
          "102542.275000",
          "102542.286000",
          "102542.289000",
          "102602.195000",
          "102602.198000",
          "102602.201000",
          "102602.204000",
          "102602.207000",
          "102602.211000",
          "102602.214000",
          "102602.217000",
          "102602.226000",
          "102602.229000",
          "102602.233000",
          "102602.236000",
          "102602.239000",
          "102602.242000",
          "102602.245000",
          "102602.248000",
          "102602.251000",
          "102602.254000",
          "102602.257000",
          "102602.260000",
          "102602.263000",
          "102602.266000",
          "102602.269000",
          "102602.272000",
          "102602.275000",
          "102602.278000",
          "102602.281000",
          "102602.284000",
          "102622.195000",
          "102622.198000",
          "102622.202000",
          "102622.205000",
          "102622.208000",
          "102622.211000",
          "102622.214000",
          "102622.217000",
          "102622.220000",
          "102622.224000",
          "102622.227000",
          "102622.230000",
          "102622.233000",
          "102622.236000",
          "102622.239000",
          "102622.242000",
          "102622.245000",
          "102622.248000",
          "102622.251000",
          "102622.254000",
          "102622.257000",
          "102622.261000",
          "102622.264000",
          "102622.267000",
          "102622.270000",
          "102622.273000",
          "102622.276000",
          "102622.279000",
          "102642.195000",
          "102642.198000",
          "102642.201000",
          "102642.205000",
          "102642.209000",
          "102642.212000",
          "102642.215000",
          "102642.218000",
          "102642.221000",
          "102642.230000",
          "102642.237000",
          "102642.246000",
          "102642.250000",
          "102642.253000",
          "102642.256000",
          "102642.259000",
          "102642.262000",
          "102642.265000",
          "102642.268000",
          "102642.272000",
          "102642.275000",
          "102642.278000",
          "102642.281000",
          "102642.284000",
          "102642.287000",
          "102642.354000"
        ],
        "InstanceNumber": [
          1,
          2,
          3,
          4,
          5,
          6,
          7,
          8,
          9,
          10,
          11,
          12,
          13,
          14,
          15,
          16,
          17,
          18,
          19,
          20,
          21,
          22,
          23,
          24,
          25,
          26,
          27,
          28,
          29,
          30,
          31,
          32,
          33,
          34,
          35,
          36,
          37,
          38,
          39,
          40,
          41,
          42,
          43,
          44,
          45,
          46,
          47,
          48,
          49,
          50,
          51,
          52,
          53,
          54,
          55,
          56,
          57,
          58,
          59,
          60,
          61,
          62,
          63,
          64,
          65,
          66,
          67,
          68,
          69,
          70,
          71,
          72,
          73,
          74,
          75,
          76,
          77,
          78,
          79,
          80,
          81,
          82,
          83,
          84,
          85,
          86,
          87,
          88,
          89,
          90,
          91,
          92,
          93,
          94,
          95,
          96,
          97,
          98,
          99,
          100,
          101,
          102,
          103,
          104,
          105,
          106,
          107,
          108,
          109,
          110,
          111,
          112,
          113,
          114,
          115,
          116,
          117,
          118,
          119,
          120,
          121,
          122,
          123,
          124,
          125,
          126,
          127,
          128,
          129,
          130,
          131,
          132,
          133,
          134,
          135,
          136,
          137,
          138,
          139,
          140,
          141,
          142,
          143,
          144,
          145,
          146,
          147,
          148,
          149,
          150,
          151,
          152,
          153,
          154,
          155,
          156,
          157,
          158,
          159,
          160,
          161,
          162,
          163,
          164,
          165,
          166,
          167,
          168,
          169,
          170,
          171,
          172,
          173,
          174,
          175,
          176,
          177,
          178,
          179,
          180,
          181,
          182,
          183,
          184,
          185,
          186,
          187,
          188,
          189,
          190,
          191,
          192
        ],
        "LargestImagePixelValue": [
          33917,
          32905,
          31450,
          31952,
          31175,
          31110,
          31766,
          31102,
          31082,
          31427,
          31009,
          31380,
          31406,
          30560,
          30731,
          31042,
          30356,
          31025,
          30677,
          30543,
          31080,
          30863,
          30619,
          30373,
          31270,
          30066,
          30413,
          30968,
          30145,
          31008,
          30877,
          30462,
          30628,
          30648,
          29877,
          30399,
          30957,
          30603,
          30382,
          30941,
          31245,
          30764,
          31808,
          31457,
          31581,
          31351,
          30008,
          31140,
          30074,
          30330,
          31073,
          30777,
          31073,
          30526,
          30680,
          30640,
          31297,
          29879,
          29895,
          29964,
          29313,
          29824,
          29529,
          30273,
          30475,
          30718,
          30388,
          30845,
          30468,
          29784,
          30147,
          30412,
          30321,
          30285,
          29988,
          30353,
          30379,
          31060,
          30514,
          30515,
          30550,
          30375,
          30305,
