{
  "aor": 0.0006972395833333332,
  "aqi": 0.01068071859375,
  "bids_meta": {
    "AcquisitionMatrixPE": 104,
    "AcquisitionNumber": 1,
    "AcquisitionTime": "10:27:25.215000",
    "BandwidthPerPixelPhaseEncode": 16.578,
    "BaseResolution": 104,
    "BodyPartExamined": "BRAIN",
    "CogAtlasID": "TODO",
    "ConsistencyInfo": "N4_VE11C_LATEST_20160120",
    "ConversionSoftware": "dcm2niix",
    "ConversionSoftwareVersion": "v1.0.20190902",
    "DerivedVendorReportedEchoSpacing": 0.000580009,
    "DeviceSerialNumber": "166018",
    "DwellTime": 2.1e-06,
    "EchoTime": 0.037,
    "EchoTrainLength": 104,
    "EffectiveEchoSpacing": 0.000580009,
    "FlipAngle": 68,
    "ImageComments": "Unaliased_MB6_PE3_LB",
    "ImageOrientationPatientDICOM": [
      0.999273,
      -0.0141729,
      -0.0353937,
      0.00837168,
      0.987248,
      -0.15897
    ],
    "ImageType": [
      "ORIGINAL",
      "PRIMARY",
      "M",
      "MB",
      "ND",
      "MOSAIC"
    ],
    "ImagingFrequency": 123.187,
    "InPlanePhaseEncodingDirectionDICOM": "COL",
    "InstitutionAddress": "Washington_Place_6_NYC_NYC_US_10003",
    "InstitutionName": "NYU_Center_for_Brain_Imaging",
    "InstitutionalDepartmentName": "Department",
    "MRAcquisitionType": "2D",
    "MagneticFieldStrength": 3,
    "Manufacturer": "Siemens",
    "ManufacturersModelName": "Prisma",
    "Modality": "MR",
    "MultibandAccelerationFactor": 6,
    "NumberOfVolumes": 192,
    "PartialFourier": 1,
    "PatientPosition": "HFS",
    "PercentPhaseFOV": 100,
    "PhaseEncodingDirection": "j",
    "PhaseEncodingSteps": 104,
    "PhaseResolution": 1,
    "PixelBandwidth": 2290,
    "ProcedureStepDescription": "Investigators_Winawer",
    "ProtocolName": "cmrr_mbepi_s6_2mm_66sl_PA_TR1.0",
    "PulseSequenceDetails": "%CustomerSeq%_cmrr_mbep2d_bold",
    "ReceiveCoilActiveElements": "HC1-7",
    "ReceiveCoilName": "HeadNeck_64",
    "ReconMatrixPE": 104,
    "RepetitionTime": 1,
    "SAR": 0.0793403,
    "ScanOptions": "FS",
    "ScanningSequence": "EP",
    "SequenceName": "epfid2d1_104",
    "SequenceVariant": "SK_SS",
    "SeriesDescription": "cmrr_mbepi_s6_2mm_66sl_PA_TR1.0",
    "SeriesNumber": 12,
    "ShimSetting": [
      248,
      -12565,
      -8487,
      527,
      -1,
      -151,
      8,
      39
    ],
    "SliceThickness": 2,
    "SliceTiming": [
      0,
      0.5325,
      0.0875,
      0.6225,
      0.1775,
      0.7125,
      0.2675,
      0.8,
      0.355,
      0.89,
      0.445,
      0,
      0.5325,
      0.0875,
      0.6225,
      0.1775,
      0.7125,
      0.2675,
      0.8,
      0.355,
      0.89,
      0.445,
      0,
      0.5325,
      0.0875,
      0.6225,
      0.1775,
      0.7125,
      0.2675,
      0.8,
      0.355,
      0.89,
      0.445,
      0,
      0.5325,
      0.0875,
      0.6225,
      0.1775,
      0.7125,
      0.2675,
      0.8,
      0.355,
      0.89,
      0.445,
      0,
      0.5325,
      0.0875,
      0.6225,
      0.1775,
      0.7125,
      0.2675,
      0.8,
      0.355,
      0.89,
      0.445,
      0,
      0.5325,
      0.0875,
      0.6225,
      0.1775,
      0.7125,
      0.2675,
      0.8,
      0.355,
      0.89,
      0.445
    ],
    "SoftwareVersions": "syngo_MR_E11",
    "SpacingBetweenSlices": 2,
    "StationName": "AWP166018",
    "TaskName": "prf",
    "TotalReadoutTime": 0.0597409,
    "TxRefAmp": 250.183,
    "WipMemBlock": "39dfe9a8-fef6-4618-90cc-a33a990a3be9||Sequence: ve11c/master r/ab69a6c; Apr 19 2017 09:47:47 by eja",
    "acq_id": "PA",
    "dataset": "unknown",
    "dcmmeta_affine": [
      [
        -1.9985458850860596,
        0.01674336940050125,
        -0.07439078390598297,
        109.00907897949219
      ],
      [
        0.02834574691951275,
        1.974495768547058,
        -0.31711673736572266,
        -70.20941925048828
      ],
      [
        -0.07078734040260315,
        0.31794050335884094,
        1.973297357559204,
        -66.471923828125
      ],
      [
        0.0,
        0.0,
        0.0,
        1.0
      ]
    ],
    "dcmmeta_reorient_transform": [
      [
        0.0,
        -1.0,
        0.0,
        103.0
      ],
      [
        1.0,
        0.0,
        0.0,
        0.0
      ],
      [
        0.0,
        0.0,
        1.0,
        0.0
      ],
      [
        0.0,
        0.0,
        0.0,
        1.0
      ]
    ],
    "dcmmeta_shape": [
      104,
      104,
      66,
      192
    ],
    "dcmmeta_slice_dim": 2,
    "dcmmeta_version": 0.6,
    "global": {
      "const": {
        "AccessionNumber": "j65cqsnu",
        "AcquisitionMatrix": [
          104,
          0,
          0,
          104
        ],
        "AngioFlag": "N",
        "BitsAllocated": 16,
        "BitsStored": 16,
        "BodyPartExamined": "BRAIN",
        "Columns": 936,
        "EchoNumbers": 1,
        "EchoTime": 37.0,
        "EchoTrainLength": 104,
        "FlipAngle": 68.0,
        "HighBit": 15,
        "ImageOrientationPatient": [
          0.99927294453127,
          -0.0141728730628,
          -0.0353936717078,
          0.00837168446251,
          0.98724787790732,
          -0.1589702565474
        ],
        "ImagePositionPatient": [
          -949.09398090774,
          -942.76204692646,
          127.98673630363
        ],
        "ImageType": [
          "ORIGINAL",
          "PRIMARY",
          "M",
          "MB",
          "ND",
          "MOSAIC"
        ],
        "ImagedNucleus": "1H",
        "ImagingFrequency": 123.187236,
        "InPlanePhaseEncodingDirection": "COL",
        "MRAcquisitionType": "2D",
        "MagneticFieldStrength": 3.0,
        "Manufacturer": "SIEMENS",
        "ManufacturerModelName": "Prisma",
        "Modality": "MR",
        "NumberOfAverages": 1.0,
        "NumberOfPhaseEncodingSteps": 104,
        "PercentPhaseFieldOfView": 100.0,
        "PercentSampling": 100.0,
        "PerformedProcedureStepStartTime": "100842.703000",
        "PhotometricInterpretation": "MONOCHROME2",
        "PixelBandwidth": 2290.0,
        "PixelRepresentation": 0,
        "PixelSpacing": [
          2.0,
          2.0
        ],
        "ProtocolName": "cmrr_mbepi_s6_2mm_66sl_PA_TR1.0",
        "RepetitionTime": 1000.0,
        "Rows": 936,
        "SAR": 0.07934028726642,
        "SamplesPerPixel": 1,
        "ScanOptions": "FS",
        "ScanningSequence": "EP",
        "SequenceName": "epfid2d1_104",
        "SequenceVariant": [
          "SK",
          "SS"
        ],
        "SeriesDescription": "cmrr_mbepi_s6_2mm_66sl_PA_TR1.0",
        "SeriesNumber": 12,
        "SeriesTime": "102849.061000",
        "SliceLocation": -58.506785531017,
        "SliceThickness": 2.0,
        "SmallestImagePixelValue": 0,
        "SoftwareVersions": "syngo MR E11",
        "SpacingBetweenSlices": 1.9999999258799,
        "SpecificCharacterSet": "ISO_IR 100",
        "StudyID": "3",
        "StudyTime": "100842.649000",
        "TransmitCoilName": "Body",
        "VariableFlipAngleFlag": "N",
        "WindowCenterWidthExplanation": "Algo1",
        "dBdt": 0.0
      },
      "slices": {}
    },
    "modality": "bold",
    "run_id": 3,
    "session_id": "nyu3t01",
    "subject_id": "wlsubj042",
    "task_id": "prf",
    "time": {
      "samples": {
        "AcquisitionNumber": [
          1,
          2,
          3,
          4,
          5,
          6,
          7,
          8,
          9,
          10,
          11,
          12,
          13,
          14,
          15,
          16,
          17,
          18,
          19,
          20,
          21,
          22,
          23,
          24,
          25,
          26,
          27,
          28,
          29,
          30,
          31,
          32,
          33,
          34,
          35,
          36,
          37,
          38,
          39,
          40,
          41,
          42,
          43,
          44,
          45,
          46,
          47,
          48,
          49,
          50,
          51,
          52,
          53,
          54,
          55,
          56,
          57,
          58,
          59,
          60,
          61,
          62,
          63,
          64,
          65,
          66,
          67,
          68,
          69,
          70,
          71,
          72,
          73,
          74,
          75,
          76,
          77,
          78,
          79,
          80,
          81,
          82,
          83,
          84,
          85,
          86,
          87,
          88,
          89,
          90,
          91,
          92,
          93,
          94,
          95,
          96,
          97,
          98,
          99,
          100,
          101,
          102,
          103,
          104,
          105,
          106,
          107,
          108,
          109,
          110,
          111,
          112,
          113,
          114,
          115,
          116,
          117,
          118,
          119,
          120,
          121,
          122,
          123,
          124,
          125,
          126,
          127,
          128,
          129,
          130,
          131,
          132,
          133,
          134,
          135,
          136,
          137,
          138,
          139,
          140,
          141,
          142,
          143,
          144,
          145,
          146,
          147,
          148,
          149,
          150,
          151,
          152,
          153,
          154,
          155,
          156,
          157,
          158,
          159,
          160,
          161,
          162,
          163,
          164,
          165,
          166,
          167,
          168,
          169,
          170,
          171,
          172,
          173,
          174,
          175,
          176,
          177,
          178,
          179,
          180,
          181,
          182,
          183,
          184,
          185,
          186,
          187,
          188,
          189,
          190,
          191,
          192
        ],
        "AcquisitionTime": [
          "102725.215000",
          "102726.215000",
          "102727.215000",
          "102728.215000",
          "102729.215000",
          "102730.215000",
          "102731.215000",
          "102732.215000",
          "102733.215000",
          "102734.215000",
          "102735.215000",
          "102736.215000",
          "102737.215000",
          "102738.215000",
          "102739.215000",
          "102740.215000",
          "102741.215000",
          "102742.215000",
          "102743.215000",
          "102744.215000",
          "102745.215000",
          "102746.215000",
          "102747.215000",
          "102748.215000",
          "102749.215000",
          "102750.215000",
          "102751.215000",
          "102752.215000",
          "102753.215000",
          "102754.215000",
          "102755.215000",
          "102756.215000",
          "102757.215000",
          "102758.215000",
          "102759.215000",
          "102800.215000",
          "102801.215000",
          "102802.215000",
          "102803.215000",
          "102804.215000",
          "102805.215000",
          "102806.215000",
          "102807.215000",
          "102808.215000",
          "102809.215000",
          "102810.215000",
          "102811.215000",
          "102812.215000",
          "102813.215000",
          "102814.215000",
          "102815.215000",
          "102816.215000",
          "102817.215000",
          "102818.215000",
          "102819.215000",
          "102820.215000",
          "102821.215000",
          "102822.215000",
          "102823.215000",
          "102824.215000",
          "102825.215000",
          "102826.215000",
          "102827.215000",
          "102828.215000",
          "102829.215000",
          "102830.215000",
          "102831.215000",
          "102832.215000",
          "102833.215000",
          "102834.215000",
          "102835.215000",
          "102836.215000",
          "102837.215000",
          "102838.215000",
          "102839.215000",
          "102840.215000",
          "102841.215000",
          "102842.215000",
          "102843.215000",
          "102844.215000",
          "102845.215000",
          "102846.215000",
          "102847.215000",
          "102848.215000",
          "102849.215000",
          "102850.215000",
          "102851.215000",
          "102852.215000",
          "102853.215000",
          "102854.215000",
          "102855.215000",
          "102856.215000",
          "102857.215000",
          "102858.215000",
          "102859.215000",
          "102900.215000",
          "102901.215000",
          "102902.215000",
          "102903.215000",
          "102904.215000",
          "102905.215000",
          "102906.215000",
          "102907.215000",
          "102908.215000",
          "102909.215000",
          "102910.215000",
          "102911.215000",
          "102912.215000",
          "102913.215000",
          "102914.215000",
          "102915.215000",
          "102916.215000",
          "102917.215000",
          "102918.215000",
          "102919.215000",
          "102920.215000",
          "102921.215000",
          "102922.215000",
          "102923.215000",
          "102924.215000",
          "102925.215000",
          "102926.215000",
          "102927.215000",
          "102928.215000",
          "102929.215000",
          "102930.215000",
          "102931.215000",
          "102932.215000",
          "102933.215000",
          "102934.215000",
          "102935.215000",
          "102936.215000",
          "102937.215000",
          "102938.215000",
          "102939.215000",
          "102940.215000",
          "102941.215000",
          "102942.215000",
          "102943.215000",
          "102944.215000",
          "102945.215000",
          "102946.215000",
          "102947.215000",
          "102948.215000",
          "102949.215000",
          "102950.215000",
          "102951.215000",
          "102952.215000",
          "102953.215000",
          "102954.215000",
          "102955.215000",
          "102956.215000",
          "102957.215000",
          "102958.215000",
          "102959.215000",
          "103000.215000",
          "103001.215000",
          "103002.215000",
          "103003.215000",
          "103004.215000",
          "103005.215000",
          "103006.215000",
          "103007.215000",
          "103008.215000",
          "103009.215000",
          "103010.215000",
          "103011.215000",
          "103012.215000",
          "103013.215000",
          "103014.215000",
          "103015.215000",
          "103016.215000",
          "103017.215000",
          "103018.215000",
          "103019.215000",
          "103020.215000",
          "103021.215000",
          "103022.215000",
          "103023.215000",
          "103024.215000",
          "103025.215000",
          "103026.215000",
          "103027.215000",
          "103028.215000",
          "103029.215000",
          "103030.215000",
          "103031.215000",
          "103032.215000",
          "103033.215000",
          "103034.215000",
          "103035.215000",
          "103036.215000"
        ],
        "ContentTime": [
          "102849.064000",
          "102849.068000",
          "102849.071000",
          "102849.074000",
          "102849.077000",
          "102849.080000",
          "102849.083000",
          "102849.086000",
          "102849.089000",
          "102849.093000",
          "102849.096000",
          "102849.099000",
          "102849.102000",
          "102849.105000",
          "102849.108000",
          "102849.111000",
          "102849.114000",
          "102849.117000",
          "102849.120000",
          "102849.123000",
          "102849.126000",
          "102849.129000",
          "102849.133000",
          "102849.136000",
          "102849.139000",
          "102849.142000",
          "102849.145000",
          "102849.148000",
          "102849.151000",
          "102849.154000",
          "102849.157000",
          "102849.160000",
          "102849.163000",
          "102849.166000",
          "102849.170000",
          "102849.182000",
          "102849.186000",
          "102849.189000",
          "102849.192000",
          "102849.195000",
          "102849.198000",
          "102849.201000",
          "102849.204000",
          "102849.207000",
          "102849.210000",
          "102849.213000",
          "102849.216000",
          "102909.027000",
          "102909.030000",
          "102909.033000",
          "102909.036000",
          "102909.039000",
          "102909.042000",
          "102909.045000",
          "102909.048000",
          "102909.052000",
          "102909.055000",
          "102909.058000",
          "102909.061000",
          "102909.064000",
          "102909.067000",
          "102909.070000",
          "102909.073000",
          "102909.076000",
          "102909.079000",
          "102909.082000",
          "102909.085000",
          "102909.088000",
          "102909.091000",
          "102909.094000",
          "102909.097000",
          "102909.101000",
          "102909.104000",
          "102909.107000",
          "102909.110000",
          "102909.113000",
          "102929.027000",
          "102929.031000",
          "102929.034000",
          "102929.037000",
          "102929.040000",
          "102929.043000",
          "102929.046000",
          "102929.050000",
          "102929.053000",
          "102929.056000",
          "102929.059000",
          "102929.062000",
          "102929.065000",
          "102929.068000",
          "102929.071000",
          "102929.074000",
          "102929.077000",
          "102929.080000",
          "102929.083000",
          "102929.086000",
          "102929.089000",
          "102929.092000",
          "102929.095000",
          "102929.098000",
          "102929.101000",
          "102929.104000",
          "102929.107000",
          "102929.110000",
          "102949.027000",
          "102949.030000",
          "102949.033000",
          "102949.036000",
          "102949.039000",
          "102949.042000",
          "102949.045000",
          "102949.049000",
          "102949.052000",
          "102949.055000",
          "102949.058000",
          "102949.061000",
          "102949.064000",
          "102949.067000",
          "102949.070000",
          "102949.073000",
          "102949.076000",
          "102949.079000",
          "102949.082000",
          "102949.086000",
          "102949.089000",
          "102949.092000",
          "102949.095000",
          "102949.098000",
          "102949.101000",
          "102949.104000",
          "102949.107000",
          "102949.110000",
          "103009.027000",
          "103009.030000",
          "103009.033000",
          "103009.036000",
          "103009.039000",
          "103009.042000",
          "103009.045000",
          "103009.049000",
          "103009.052000",
          "103009.055000",
          "103009.058000",
          "103009.061000",
          "103009.064000",
          "103009.067000",
          "103009.070000",
          "103009.073000",
          "103009.077000",
          "103009.080000",
          "103009.083000",
          "103009.088000",
          "103009.091000",
          "103009.094000",
          "103009.097000",
          "103009.100000",
          "103009.103000",
          "103009.106000",
          "103009.109000",
          "103009.112000",
          "103029.027000",
          "103029.030000",
          "103029.033000",
          "103029.037000",
          "103029.040000",
          "103029.043000",
          "103029.045000",
          "103029.049000",
          "103029.052000",
          "103029.055000",
          "103029.058000",
          "103029.061000",
          "103029.064000",
          "103029.067000",
          "103029.070000",
          "103029.073000",
          "103029.076000",
          "103029.079000",
          "103029.082000",
          "103029.086000",
          "103029.089000",
          "103029.092000",
          "103038.354000",
          "103038.358000",
          "103038.361000",
          "103038.364000",
          "103038.367000",
          "103038.370000",
          "103038.373000",
          "103038.377000",
          "103038.380000",
          "103038.383000"
        ],
        "InstanceCreationTime": [
          "102849.064000",
          "102849.068000",
          "102849.071000",
          "102849.074000",
          "102849.077000",
          "102849.080000",
          "102849.083000",
          "102849.086000",
          "102849.089000",
          "102849.093000",
          "102849.096000",
          "102849.099000",
          "102849.102000",
          "102849.105000",
          "102849.108000",
          "102849.111000",
          "102849.114000",
          "102849.117000",
          "102849.120000",
          "102849.123000",
          "102849.126000",
          "102849.129000",
          "102849.133000",
          "102849.136000",
          "102849.139000",
          "102849.142000",
          "102849.145000",
          "102849.148000",
          "102849.151000",
          "102849.154000",
          "102849.157000",
          "102849.160000",
          "102849.163000",
          "102849.166000",
          "102849.170000",
          "102849.182000",
          "102849.186000",
          "102849.189000",
          "102849.192000",
          "102849.195000",
          "102849.198000",
          "102849.201000",
          "102849.204000",
          "102849.207000",
          "102849.210000",
          "102849.213000",
          "102849.216000",
          "102909.027000",
          "102909.030000",
          "102909.033000",
          "102909.036000",
          "102909.039000",
          "102909.042000",
          "102909.045000",
          "102909.048000",
          "102909.052000",
          "102909.055000",
          "102909.058000",
          "102909.061000",
          "102909.064000",
          "102909.067000",
          "102909.070000",
          "102909.073000",
          "102909.076000",
          "102909.079000",
          "102909.082000",
          "102909.085000",
          "102909.088000",
          "102909.091000",
          "102909.094000",
          "102909.097000",
          "102909.101000",
          "102909.104000",
          "102909.107000",
          "102909.110000",
          "102909.113000",
          "102929.027000",
          "102929.031000",
          "102929.034000",
          "102929.037000",
          "102929.040000",
          "102929.043000",
          "102929.046000",
          "102929.050000",
          "102929.053000",
          "102929.056000",
          "102929.059000",
          "102929.062000",
          "102929.065000",
          "102929.068000",
          "102929.071000",
          "102929.074000",
          "102929.077000",
          "102929.080000",
          "102929.083000",
          "102929.086000",
          "102929.089000",
          "102929.092000",
          "102929.095000",
          "102929.098000",
          "102929.101000",
          "102929.104000",
          "102929.107000",
          "102929.110000",
          "102949.027000",
          "102949.030000",
          "102949.033000",
          "102949.036000",
          "102949.039000",
          "102949.042000",
          "102949.045000",
          "102949.049000",
          "102949.052000",
          "102949.055000",
          "102949.058000",
          "102949.061000",
          "102949.064000",
          "102949.067000",
          "102949.070000",
          "102949.073000",
          "102949.076000",
          "102949.079000",
          "102949.082000",
          "102949.086000",
          "102949.089000",
          "102949.092000",
          "102949.095000",
          "102949.098000",
          "102949.101000",
          "102949.104000",
          "102949.107000",
          "102949.110000",
          "103009.027000",
          "103009.030000",
          "103009.033000",
          "103009.036000",
          "103009.039000",
          "103009.042000",
          "103009.045000",
          "103009.049000",
          "103009.052000",
          "103009.055000",
          "103009.058000",
          "103009.061000",
          "103009.064000",
          "103009.067000",
          "103009.070000",
          "103009.073000",
          "103009.077000",
          "103009.080000",
          "103009.083000",
          "103009.088000",
          "103009.091000",
          "103009.094000",
          "103009.097000",
          "103009.100000",
          "103009.103000",
          "103009.106000",
          "103009.109000",
          "103009.112000",
          "103029.027000",
          "103029.030000",
          "103029.033000",
          "103029.037000",
          "103029.040000",
          "103029.043000",
          "103029.045000",
          "103029.049000",
          "103029.052000",
          "103029.055000",
          "103029.058000",
          "103029.061000",
          "103029.064000",
          "103029.067000",
          "103029.070000",
          "103029.073000",
          "103029.076000",
          "103029.079000",
          "103029.082000",
          "103029.086000",
          "103029.089000",
          "103029.092000",
          "103038.354000",
          "103038.358000",
          "103038.361000",
          "103038.364000",
          "103038.367000",
          "103038.370000",
          "103038.373000",
          "103038.377000",
          "103038.380000",
          "103038.383000"
        ],
        "InstanceNumber": [
          1,
          2,
          3,
          4,
          5,
          6,
          7,
          8,
          9,
          10,
          11,
          12,
          13,
          14,
          15,
          16,
          17,
          18,
          19,
          20,
          21,
          22,
          23,
          24,
          25,
          26,
          27,
          28,
          29,
          30,
          31,
          32,
          33,
          34,
          35,
          36,
          37,
          38,
          39,
          40,
          41,
          42,
          43,
          44,
          45,
          46,
          47,
          48,
          49,
          50,
          51,
          52,
          53,
          54,
          55,
          56,
          57,
          58,
          59,
          60,
          61,
          62,
          63,
          64,
          65,
          66,
          67,
          68,
          69,
          70,
          71,
          72,
          73,
          74,
          75,
          76,
          77,
          78,
          79,
          80,
          81,
          82,
          83,
          84,
          85,
          86,
          87,
          88,
          89,
          90,
          91,
          92,
          93,
          94,
          95,
          96,
          97,
          98,
          99,
          100,
          101,
          102,
          103,
          104,
          105,
          106,
          107,
          108,
          109,
          110,
          111,
          112,
          113,
          114,
          115,
          116,
          117,
          118,
          119,
          120,
          121,
          122,
          123,
          124,
          125,
          126,
          127,
          128,
          129,
          130,
          131,
          132,
          133,
          134,
          135,
          136,
          137,
          138,
          139,
          140,
          141,
          142,
          143,
          144,
          145,
          146,
          147,
          148,
          149,
          150,
          151,
          152,
          153,
          154,
          155,
          156,
          157,
          158,
          159,
          160,
          161,
          162,
          163,
          164,
          165,
          166,
          167,
          168,
          169,
          170,
          171,
          172,
          173,
          174,
          175,
          176,
          177,
          178,
          179,
          180,
          181,
          182,
          183,
          184,
          185,
          186,
          187,
          188,
          189,
          190,
          191,
          192
        ],
        "LargestImagePixelValue": [
          33442,
          32166,
          30973,
          30950,
          30969,
          30951,
          31068,
          30951,
          30643,
          30803,
          30931,
          30440,
          30907,
          31140,
          30622,
          30806,
          31173,
          31069,
          31356,
          31518,
          30861,
          30974,
          31676,
          31128,
          31652,
          30976,
          32048,
          31464,
          31450,
          31165,
          31630,
          31318,
          31420,
          31627,
          31308,
          31177,
          30907,
          31487,
          31174,
          31049,
          31044,
          31102,
          31065,
          30952,
          31379,
          31853,
          30929,
          30886,
          31122,
          31653,
          31257,
          30725,
          31164,
          31217,
          30877,
          31259,
          30789,
          31502,
          30831,
          30921,
          30788,
          31308,
          31317,
          30967,
          30917,
          30995,
          30602,
          31114,
          30914,
          31200,
          31087,
          30980,
          31140,
          31255,
          31519,
          31493,
          31434,
          31321,
          31163,
          30740,
          31545,
          31278,
          31047,
