{
  "aor": 0.0009767708333333332,
  "aqi": 0.009716921875,
  "bids_meta": {
    "AcquisitionMatrixPE": 104,
    "AcquisitionNumber": 1,
    "AcquisitionTime": "10:51:25.517500",
    "BandwidthPerPixelPhaseEncode": 16.578,
    "BaseResolution": 104,
    "BodyPartExamined": "BRAIN",
    "CogAtlasID": "TODO",
    "ConsistencyInfo": "N4_VE11C_LATEST_20160120",
    "ConversionSoftware": "dcm2niix",
    "ConversionSoftwareVersion": "v1.0.20190902",
    "DerivedVendorReportedEchoSpacing": 0.000580009,
    "DeviceSerialNumber": "166018",
    "DwellTime": 2.1e-06,
    "EchoTime": 0.037,
    "EchoTrainLength": 104,
    "EffectiveEchoSpacing": 0.000580009,
    "FlipAngle": 68,
    "ImageComments": "Unaliased_MB6_PE3_LB",
    "ImageOrientationPatientDICOM": [
      0.999273,
      -0.0141729,
      -0.0353937,
      0.00837168,
      0.987248,
      -0.15897
    ],
    "ImageType": [
      "ORIGINAL",
      "PRIMARY",
      "M",
      "MB",
      "ND",
      "MOSAIC"
    ],
    "ImagingFrequency": 123.187,
    "InPlanePhaseEncodingDirectionDICOM": "COL",
    "InstitutionAddress": "Washington_Place_6_NYC_NYC_US_10003",
    "InstitutionName": "NYU_Center_for_Brain_Imaging",
    "InstitutionalDepartmentName": "Department",
    "MRAcquisitionType": "2D",
    "MagneticFieldStrength": 3,
    "Manufacturer": "Siemens",
    "ManufacturersModelName": "Prisma",
    "Modality": "MR",
    "MultibandAccelerationFactor": 6,
    "NumberOfVolumes": 192,
    "PartialFourier": 1,
    "PatientPosition": "HFS",
    "PercentPhaseFOV": 100,
    "PhaseEncodingDirection": "j",
    "PhaseEncodingSteps": 104,
    "PhaseResolution": 1,
    "PixelBandwidth": 2290,
    "ProcedureStepDescription": "Investigators_Winawer",
    "ProtocolName": "cmrr_mbepi_s6_2mm_66sl_PA_TR1.0",
    "PulseSequenceDetails": "%CustomerSeq%_cmrr_mbep2d_bold",
    "ReceiveCoilActiveElements": "HC1-7",
    "ReceiveCoilName": "HeadNeck_64",
    "ReconMatrixPE": 104,
    "RepetitionTime": 1,
    "SAR": 0.0793403,
    "ScanOptions": "FS",
    "ScanningSequence": "EP",
    "SequenceName": "epfid2d1_104",
    "SequenceVariant": "SK_SS",
    "SeriesDescription": "cmrr_mbepi_s6_2mm_66sl_PA_TR1.0",
    "SeriesNumber": 24,
    "ShimSetting": [
      248,
      -12565,
      -8487,
      527,
      -1,
      -151,
      8,
      39
    ],
    "SliceThickness": 2,
    "SliceTiming": [
      0,
      0.535,
      0.09,
      0.625,
      0.18,
      0.7125,
      0.2675,
      0.8025,
      0.3575,
      0.8925,
      0.445,
      0,
      0.535,
      0.09,
      0.625,
      0.18,
      0.7125,
      0.2675,
      0.8025,
      0.3575,
      0.8925,
      0.445,
      0,
      0.535,
      0.09,
      0.625,
      0.18,
      0.7125,
      0.2675,
      0.8025,
      0.3575,
      0.8925,
      0.445,
      0,
      0.535,
      0.09,
      0.625,
      0.18,
      0.7125,
      0.2675,
      0.8025,
      0.3575,
      0.8925,
      0.445,
      0,
      0.535,
      0.09,
      0.625,
      0.18,
      0.7125,
      0.2675,
      0.8025,
      0.3575,
      0.8925,
      0.445,
      0,
      0.535,
      0.09,
      0.625,
      0.18,
      0.7125,
      0.2675,
      0.8025,
      0.3575,
      0.8925,
      0.445
    ],
    "SoftwareVersions": "syngo_MR_E11",
    "SpacingBetweenSlices": 2,
    "StationName": "AWP166018",
    "TaskName": "prf",
    "TotalReadoutTime": 0.0597409,
    "TxRefAmp": 250.183,
    "WipMemBlock": "39dfe9a8-fef6-4618-90cc-a33a990a3be9||Sequence: ve11c/master r/ab69a6c; Apr 19 2017 09:47:47 by eja",
    "acq_id": "PA",
    "dataset": "unknown",
    "dcmmeta_affine": [
      [
        -1.9985458850860596,
        0.01674336940050125,
        -0.07439078390598297,
        109.00907897949219
      ],
      [
        0.02834574691951275,
        1.974495768547058,
        -0.31711673736572266,
        -70.20941925048828
      ],
      [
        -0.07078734040260315,
        0.31794050335884094,
        1.973297357559204,
        -66.471923828125
      ],
      [
        0.0,
        0.0,
        0.0,
        1.0
      ]
    ],
    "dcmmeta_reorient_transform": [
      [
        0.0,
        -1.0,
        0.0,
        103.0
      ],
      [
        1.0,
        0.0,
        0.0,
        0.0
      ],
      [
        0.0,
        0.0,
        1.0,
        0.0
      ],
      [
        0.0,
        0.0,
        0.0,
        1.0
      ]
    ],
    "dcmmeta_shape": [
      104,
      104,
      66,
      192
    ],
    "dcmmeta_slice_dim": 2,
    "dcmmeta_version": 0.6,
    "global": {
      "const": {
        "AccessionNumber": "j65cqsnu",
        "AcquisitionMatrix": [
          104,
          0,
          0,
          104
        ],
        "AngioFlag": "N",
        "BitsAllocated": 16,
        "BitsStored": 16,
        "BodyPartExamined": "BRAIN",
        "Columns": 936,
        "EchoNumbers": 1,
        "EchoTime": 37.0,
        "EchoTrainLength": 104,
        "FlipAngle": 68.0,
        "HighBit": 15,
        "ImageOrientationPatient": [
          0.99927294453127,
          -0.0141728730628,
          -0.0353936717078,
          0.00837168446251,
          0.98724787790732,
          -0.1589702565474
        ],
        "ImagePositionPatient": [
          -949.09398090774,
          -942.76204692646,
          127.98673630363
        ],
        "ImageType": [
          "ORIGINAL",
          "PRIMARY",
          "M",
          "MB",
          "ND",
          "MOSAIC"
        ],
        "ImagedNucleus": "1H",
        "ImagingFrequency": 123.187236,
        "InPlanePhaseEncodingDirection": "COL",
        "MRAcquisitionType": "2D",
        "MagneticFieldStrength": 3.0,
        "Manufacturer": "SIEMENS",
        "ManufacturerModelName": "Prisma",
        "Modality": "MR",
        "NumberOfAverages": 1.0,
        "NumberOfPhaseEncodingSteps": 104,
        "PercentPhaseFieldOfView": 100.0,
        "PercentSampling": 100.0,
        "PerformedProcedureStepStartTime": "100842.703000",
        "PhotometricInterpretation": "MONOCHROME2",
        "PixelBandwidth": 2290.0,
        "PixelRepresentation": 0,
        "PixelSpacing": [
          2.0,
          2.0
        ],
        "ProtocolName": "cmrr_mbepi_s6_2mm_66sl_PA_TR1.0",
        "RepetitionTime": 1000.0,
        "Rows": 936,
        "SAR": 0.07934028726642,
        "SamplesPerPixel": 1,
        "ScanOptions": "FS",
        "ScanningSequence": "EP",
        "SequenceName": "epfid2d1_104",
        "SequenceVariant": [
          "SK",
          "SS"
        ],
        "SeriesDescription": "cmrr_mbepi_s6_2mm_66sl_PA_TR1.0",
        "SeriesNumber": 24,
        "SeriesTime": "105249.059000",
        "SliceLocation": -58.506785531017,
        "SliceThickness": 2.0,
        "SmallestImagePixelValue": 0,
        "SoftwareVersions": "syngo MR E11",
        "SpacingBetweenSlices": 1.9999999258799,
        "SpecificCharacterSet": "ISO_IR 100",
        "StudyID": "3",
        "StudyTime": "100842.649000",
        "TransmitCoilName": "Body",
        "VariableFlipAngleFlag": "N",
        "WindowCenterWidthExplanation": "Algo1",
        "dBdt": 0.0
      },
      "slices": {}
    },
    "modality": "bold",
    "run_id": 9,
    "session_id": "nyu3t01",
    "subject_id": "wlsubj042",
    "task_id": "prf",
    "time": {
      "samples": {
        "AcquisitionNumber": [
          1,
          2,
          3,
          4,
          5,
          6,
          7,
          8,
          9,
          10,
          11,
          12,
          13,
          14,
          15,
          16,
          17,
          18,
          19,
          20,
          21,
          22,
          23,
          24,
          25,
          26,
          27,
          28,
          29,
          30,
          31,
          32,
          33,
          34,
          35,
          36,
          37,
          38,
          39,
          40,
          41,
          42,
          43,
          44,
          45,
          46,
          47,
          48,
          49,
          50,
          51,
          52,
          53,
          54,
          55,
          56,
          57,
          58,
          59,
          60,
          61,
          62,
          63,
          64,
          65,
          66,
          67,
          68,
          69,
          70,
          71,
          72,
          73,
          74,
          75,
          76,
          77,
          78,
          79,
          80,
          81,
          82,
          83,
          84,
          85,
          86,
          87,
          88,
          89,
          90,
          91,
          92,
          93,
          94,
          95,
          96,
          97,
          98,
          99,
          100,
          101,
          102,
          103,
          104,
          105,
          106,
          107,
          108,
          109,
          110,
          111,
          112,
          113,
          114,
          115,
          116,
          117,
          118,
          119,
          120,
          121,
          122,
          123,
          124,
          125,
          126,
          127,
          128,
          129,
          130,
          131,
          132,
          133,
          134,
          135,
          136,
          137,
          138,
          139,
          140,
          141,
          142,
          143,
          144,
          145,
          146,
          147,
          148,
          149,
          150,
          151,
          152,
          153,
          154,
          155,
          156,
          157,
          158,
          159,
          160,
          161,
          162,
          163,
          164,
          165,
          166,
          167,
          168,
          169,
          170,
          171,
          172,
          173,
          174,
          175,
          176,
          177,
          178,
          179,
          180,
          181,
          182,
          183,
          184,
          185,
          186,
          187,
          188,
          189,
          190,
          191,
          192
        ],
        "AcquisitionTime": [
          "105125.517500",
          "105126.517500",
          "105127.517500",
          "105128.517500",
          "105129.517500",
          "105130.517500",
          "105131.517500",
          "105132.517500",
          "105133.517500",
          "105134.517500",
          "105135.517500",
          "105136.517500",
          "105137.517500",
          "105138.517500",
          "105139.517500",
          "105140.517500",
          "105141.517500",
          "105142.517500",
          "105143.517500",
          "105144.517500",
          "105145.517500",
          "105146.517500",
          "105147.517500",
          "105148.517500",
          "105149.517500",
          "105150.517500",
          "105151.517500",
          "105152.517500",
          "105153.517500",
          "105154.517500",
          "105155.517500",
          "105156.517500",
          "105157.517500",
          "105158.517500",
          "105159.517500",
          "105200.517500",
          "105201.517500",
          "105202.517500",
          "105203.517500",
          "105204.517500",
          "105205.517500",
          "105206.517500",
          "105207.517500",
          "105208.517500",
          "105209.517500",
          "105210.517500",
          "105211.517500",
          "105212.517500",
          "105213.517500",
          "105214.517500",
          "105215.517500",
          "105216.517500",
          "105217.517500",
          "105218.517500",
          "105219.517500",
          "105220.517500",
          "105221.517500",
          "105222.517500",
          "105223.517500",
          "105224.517500",
          "105225.517500",
          "105226.517500",
          "105227.517500",
          "105228.517500",
          "105229.517500",
          "105230.517500",
          "105231.517500",
          "105232.517500",
          "105233.517500",
          "105234.517500",
          "105235.517500",
          "105236.517500",
          "105237.517500",
          "105238.517500",
          "105239.517500",
          "105240.517500",
          "105241.517500",
          "105242.517500",
          "105243.517500",
          "105244.517500",
          "105245.517500",
          "105246.517500",
          "105247.517500",
          "105248.517500",
          "105249.517500",
          "105250.517500",
          "105251.517500",
          "105252.517500",
          "105253.517500",
          "105254.517500",
          "105255.517500",
          "105256.517500",
          "105257.517500",
          "105258.517500",
          "105259.517500",
          "105300.517500",
          "105301.517500",
          "105302.517500",
          "105303.517500",
          "105304.517500",
          "105305.517500",
          "105306.517500",
          "105307.517500",
          "105308.517500",
          "105309.517500",
          "105310.517500",
          "105311.517500",
          "105312.517500",
          "105313.517500",
          "105314.517500",
          "105315.517500",
          "105316.517500",
          "105317.517500",
          "105318.517500",
          "105319.517500",
          "105320.517500",
          "105321.517500",
          "105322.517500",
          "105323.517500",
          "105324.517500",
          "105325.517500",
          "105326.517500",
          "105327.517500",
          "105328.517500",
          "105329.517500",
          "105330.517500",
          "105331.517500",
          "105332.517500",
          "105333.517500",
          "105334.517500",
          "105335.517500",
          "105336.517500",
          "105337.517500",
          "105338.517500",
          "105339.517500",
          "105340.517500",
          "105341.517500",
          "105342.517500",
          "105343.517500",
          "105344.517500",
          "105345.517500",
          "105346.517500",
          "105347.517500",
          "105348.517500",
          "105349.517500",
          "105350.517500",
          "105351.517500",
          "105352.517500",
          "105353.517500",
          "105354.517500",
          "105355.517500",
          "105356.517500",
          "105357.517500",
          "105358.517500",
          "105359.517500",
          "105400.517500",
          "105401.517500",
          "105402.517500",
          "105403.517500",
          "105404.517500",
          "105405.517500",
          "105406.517500",
          "105407.517500",
          "105408.517500",
          "105409.517500",
          "105410.517500",
          "105411.517500",
          "105412.517500",
          "105413.517500",
          "105414.517500",
          "105415.517500",
          "105416.517500",
          "105417.517500",
          "105418.517500",
          "105419.517500",
          "105420.517500",
          "105421.517500",
          "105422.517500",
          "105423.517500",
          "105424.517500",
          "105425.517500",
          "105426.517500",
          "105427.517500",
          "105428.517500",
          "105429.517500",
          "105430.517500",
          "105431.517500",
          "105432.517500",
          "105433.517500",
          "105434.517500",
          "105435.517500",
          "105436.517500"
        ],
        "ContentTime": [
          "105249.062000",
          "105249.065000",
          "105249.069000",
          "105249.072000",
          "105249.075000",
          "105249.078000",
          "105249.081000",
          "105249.088000",
          "105249.091000",
          "105249.094000",
          "105249.097000",
          "105249.101000",
          "105249.104000",
          "105249.107000",
          "105249.110000",
          "105249.113000",
          "105249.116000",
          "105249.119000",
          "105249.122000",
          "105249.125000",
          "105249.128000",
          "105249.131000",
          "105249.134000",
          "105249.137000",
          "105249.140000",
          "105249.143000",
          "105249.146000",
          "105249.149000",
          "105249.152000",
          "105249.155000",
          "105249.158000",
          "105249.161000",
          "105249.164000",
          "105249.167000",
          "105249.170000",
          "105249.174000",
          "105249.177000",
          "105249.180000",
          "105249.183000",
          "105249.186000",
          "105309.027000",
          "105309.030000",
          "105309.034000",
          "105309.037000",
          "105309.040000",
          "105309.043000",
          "105309.046000",
          "105309.049000",
          "105309.052000",
          "105309.055000",
          "105309.058000",
          "105309.061000",
          "105309.064000",
          "105309.067000",
          "105309.070000",
          "105309.073000",
          "105309.076000",
          "105309.079000",
          "105309.083000",
          "105309.086000",
          "105309.089000",
          "105309.092000",
          "105309.095000",
          "105309.098000",
          "105309.101000",
          "105309.104000",
          "105309.107000",
          "105309.110000",
          "105329.028000",
          "105329.034000",
          "105329.037000",
          "105329.040000",
          "105329.043000",
          "105329.046000",
          "105329.049000",
          "105329.052000",
          "105329.056000",
          "105329.059000",
          "105329.067000",
          "105329.070000",
          "105329.073000",
          "105329.076000",
          "105329.079000",
          "105329.082000",
          "105329.085000",
          "105329.088000",
          "105329.091000",
          "105329.094000",
          "105329.098000",
          "105329.100000",
          "105329.104000",
          "105329.107000",
          "105329.110000",
          "105329.113000",
          "105329.116000",
          "105329.119000",
          "105349.027000",
          "105349.030000",
          "105349.034000",
          "105349.037000",
          "105349.040000",
          "105349.043000",
          "105349.046000",
          "105349.049000",
          "105349.052000",
          "105349.055000",
          "105349.058000",
          "105349.061000",
          "105349.064000",
          "105349.067000",
          "105349.070000",
          "105349.073000",
          "105349.077000",
          "105349.080000",
          "105349.083000",
          "105349.086000",
          "105349.094000",
          "105349.097000",
          "105349.100000",
          "105349.103000",
          "105349.118000",
          "105349.121000",
          "105349.124000",
          "105349.127000",
          "105349.130000",
          "105409.027000",
          "105409.030000",
          "105409.033000",
          "105409.036000",
          "105409.039000",
          "105409.042000",
          "105409.045000",
          "105409.049000",
          "105409.052000",
          "105409.055000",
          "105409.058000",
          "105409.061000",
          "105409.064000",
          "105409.067000",
          "105409.070000",
          "105409.074000",
          "105409.077000",
          "105409.080000",
          "105409.083000",
          "105409.086000",
          "105409.089000",
          "105409.092000",
          "105409.095000",
          "105409.098000",
          "105409.101000",
          "105409.104000",
          "105409.107000",
          "105409.110000",
          "105429.027000",
          "105429.030000",
          "105429.033000",
          "105429.037000",
          "105429.040000",
          "105429.043000",
          "105429.046000",
          "105429.049000",
          "105429.052000",
          "105429.055000",
          "105429.058000",
          "105429.061000",
          "105429.064000",
          "105429.068000",
          "105429.071000",
          "105429.080000",
          "105429.084000",
          "105429.087000",
          "105429.090000",
          "105429.093000",
          "105429.096000",
          "105429.099000",
          "105429.102000",
          "105429.105000",
          "105429.108000",
          "105429.112000",
          "105429.115000",
          "105429.118000",
          "105429.121000",
          "105437.743000",
          "105437.748000",
          "105437.751000",
          "105437.754000",
          "105437.764000",
          "105437.767000",
          "105437.770000",
          "105437.775000",
          "105437.778000",
          "105437.781000"
        ],
        "InstanceCreationTime": [
          "105249.062000",
          "105249.065000",
          "105249.069000",
          "105249.072000",
          "105249.075000",
          "105249.078000",
          "105249.081000",
          "105249.088000",
          "105249.091000",
          "105249.094000",
          "105249.097000",
          "105249.101000",
          "105249.104000",
          "105249.107000",
          "105249.110000",
          "105249.113000",
          "105249.116000",
          "105249.119000",
          "105249.122000",
          "105249.125000",
          "105249.128000",
          "105249.131000",
          "105249.134000",
          "105249.137000",
          "105249.140000",
          "105249.143000",
          "105249.146000",
          "105249.149000",
          "105249.152000",
          "105249.155000",
          "105249.158000",
          "105249.161000",
          "105249.164000",
          "105249.167000",
          "105249.170000",
          "105249.174000",
          "105249.177000",
          "105249.180000",
          "105249.183000",
          "105249.186000",
          "105309.027000",
          "105309.030000",
          "105309.034000",
          "105309.037000",
          "105309.040000",
          "105309.043000",
          "105309.046000",
          "105309.049000",
          "105309.052000",
          "105309.055000",
          "105309.058000",
          "105309.061000",
          "105309.064000",
          "105309.067000",
          "105309.070000",
          "105309.073000",
          "105309.076000",
          "105309.079000",
          "105309.083000",
          "105309.086000",
          "105309.089000",
          "105309.092000",
          "105309.095000",
          "105309.098000",
          "105309.101000",
          "105309.104000",
          "105309.107000",
          "105309.110000",
          "105329.028000",
          "105329.034000",
          "105329.037000",
          "105329.040000",
          "105329.043000",
          "105329.046000",
          "105329.049000",
          "105329.052000",
          "105329.056000",
          "105329.059000",
          "105329.067000",
          "105329.070000",
          "105329.073000",
          "105329.076000",
          "105329.079000",
          "105329.082000",
          "105329.085000",
          "105329.088000",
          "105329.091000",
          "105329.094000",
          "105329.098000",
          "105329.100000",
          "105329.104000",
          "105329.107000",
          "105329.110000",
          "105329.113000",
          "105329.116000",
          "105329.119000",
          "105349.027000",
          "105349.030000",
          "105349.034000",
          "105349.037000",
          "105349.040000",
          "105349.043000",
          "105349.046000",
          "105349.049000",
          "105349.052000",
          "105349.055000",
          "105349.058000",
          "105349.061000",
          "105349.064000",
          "105349.067000",
          "105349.070000",
          "105349.073000",
          "105349.077000",
          "105349.080000",
          "105349.083000",
          "105349.086000",
          "105349.094000",
          "105349.097000",
          "105349.100000",
          "105349.103000",
          "105349.118000",
          "105349.121000",
          "105349.124000",
          "105349.127000",
          "105349.130000",
          "105409.027000",
          "105409.030000",
          "105409.033000",
          "105409.036000",
          "105409.039000",
          "105409.042000",
          "105409.045000",
          "105409.049000",
          "105409.052000",
          "105409.055000",
          "105409.058000",
          "105409.061000",
          "105409.064000",
          "105409.067000",
          "105409.070000",
          "105409.074000",
          "105409.077000",
          "105409.080000",
          "105409.083000",
          "105409.086000",
          "105409.089000",
          "105409.092000",
          "105409.095000",
          "105409.098000",
          "105409.101000",
          "105409.104000",
          "105409.107000",
          "105409.110000",
          "105429.027000",
          "105429.030000",
          "105429.033000",
          "105429.037000",
          "105429.040000",
          "105429.043000",
          "105429.046000",
          "105429.049000",
          "105429.052000",
          "105429.055000",
          "105429.058000",
          "105429.061000",
          "105429.064000",
          "105429.068000",
          "105429.071000",
          "105429.080000",
          "105429.084000",
          "105429.087000",
          "105429.090000",
          "105429.093000",
          "105429.096000",
          "105429.099000",
          "105429.102000",
          "105429.105000",
          "105429.108000",
          "105429.112000",
          "105429.115000",
          "105429.118000",
          "105429.121000",
          "105437.743000",
          "105437.748000",
          "105437.751000",
          "105437.754000",
          "105437.764000",
          "105437.767000",
          "105437.770000",
          "105437.775000",
          "105437.778000",
          "105437.781000"
        ],
        "InstanceNumber": [
          1,
          2,
          3,
          4,
          5,
          6,
          7,
          8,
          9,
          10,
          11,
          12,
          13,
          14,
          15,
          16,
          17,
          18,
          19,
          20,
          21,
          22,
          23,
          24,
          25,
          26,
          27,
          28,
          29,
          30,
          31,
          32,
          33,
          34,
          35,
          36,
          37,
          38,
          39,
          40,
          41,
          42,
          43,
          44,
          45,
          46,
          47,
          48,
          49,
          50,
          51,
          52,
          53,
          54,
          55,
          56,
          57,
          58,
          59,
          60,
          61,
          62,
          63,
          64,
          65,
          66,
          67,
          68,
          69,
          70,
          71,
          72,
          73,
          74,
          75,
          76,
          77,
          78,
          79,
          80,
          81,
          82,
          83,
          84,
          85,
          86,
          87,
          88,
          89,
          90,
          91,
          92,
          93,
          94,
          95,
          96,
          97,
          98,
          99,
          100,
          101,
          102,
          103,
          104,
          105,
          106,
          107,
          108,
          109,
          110,
          111,
          112,
          113,
          114,
          115,
          116,
          117,
          118,
          119,
          120,
          121,
          122,
          123,
          124,
          125,
          126,
          127,
          128,
          129,
          130,
          131,
          132,
          133,
          134,
          135,
          136,
          137,
          138,
          139,
          140,
          141,
          142,
          143,
          144,
          145,
          146,
          147,
          148,
          149,
          150,
          151,
          152,
          153,
          154,
          155,
          156,
          157,
          158,
          159,
          160,
          161,
          162,
          163,
          164,
          165,
          166,
          167,
          168,
          169,
          170,
          171,
          172,
          173,
          174,
          175,
          176,
          177,
          178,
          179,
          180,
          181,
          182,
          183,
          184,
          185,
          186,
          187,
          188,
          189,
          190,
          191,
          192
        ],
        "LargestImagePixelValue": [
          34577,
          33241,
          31968,
          31812,
          31257,
          31310,
          31325,
          31112,
          30957,
          30881,
          31387,
          31127,
          31114,
          31083,
          31367,
          31165,
          30911,
          30682,
          31154,
          31032,
          31473,
          31008,
          30903,
          31062,
          30485,
          30708,
          30796,
          31065,
          30382,
          30982,
          30767,
          32054,
          31804,
          31037,
          30830,
          31337,
          31359,
          31782,
          30791,
          30921,
          30762,
          31359,
          31151,
          31728,
          32254,
          31989,
          31987,
          32032,
          31813,
          32085,
          31716,
          31980,
          32442,
          31787,
          32209,
          31452,
          31409,
          32052,
          30967,
          31681,
          31998,
          31376,
          31569,
          31620,
          31693,
          31508,
          31945,
          31166,
          31331,
          31040,
          31475,
          31405,
          31390,
          31703,
          31265,
          31044,
          31160,
          31132,
          30913,
          31175,
          31688,
          31309,
          31107,
