{
  "aor": 0.0005217460317460318,
  "aqi": 0.005823879365079365,
  "bids_meta": {
    "AcquisitionMatrixPE": 104,
    "AcquisitionNumber": 1,
    "AcquisitionTime": "15:59:14.520000",
    "BandwidthPerPixelPhaseEncode": 16.578,
    "BaseResolution": 104,
    "BodyPartExamined": "BRAIN",
    "CogAtlasID": "TODO",
    "ConsistencyInfo": "N4_VE11C_LATEST_20160120",
    "ConversionSoftware": "dcm2niix",
    "ConversionSoftwareVersion": "v1.0.20190902",
    "DerivedVendorReportedEchoSpacing": 0.000580009,
    "DeviceSerialNumber": "166018",
    "DwellTime": 2.1e-06,
    "EchoTime": 0.037,
    "EchoTrainLength": 104,
    "EffectiveEchoSpacing": 0.000580009,
    "FlipAngle": 68,
    "ImageComments": "Unaliased_MB6_PE3_LB",
    "ImageOrientationPatientDICOM": [
      0.998756,
      0.0349869,
      0.0355412,
      -0.0245835,
      0.965421,
      -0.259534
    ],
    "ImageType": [
      "ORIGINAL",
      "PRIMARY",
      "M",
      "MB",
      "ND",
      "MOSAIC"
    ],
    "ImagingFrequency": 123.191,
    "InPlanePhaseEncodingDirectionDICOM": "COL",
    "InstitutionAddress": "Washington_Place_6_NYC_NYC_US_10003",
    "InstitutionName": "NYU_-_CBI",
    "InstitutionalDepartmentName": "Department",
    "MRAcquisitionType": "2D",
    "MagneticFieldStrength": 3,
    "Manufacturer": "Siemens",
    "ManufacturersModelName": "Prisma",
    "Modality": "MR",
    "MultibandAccelerationFactor": 6,
    "NumberOfVolumes": 192,
    "PartialFourier": 1,
    "PatientPosition": "HFS",
    "PercentPhaseFOV": 100,
    "PhaseEncodingDirection": "j",
    "PhaseEncodingSteps": 104,
    "PhaseResolution": 1,
    "PixelBandwidth": 2290,
    "ProcedureStepDescription": "Investigators_Winawer",
    "ProtocolName": "cmrr_mbepi_s6_2mm_66sl_PA_task-prf",
    "PulseSequenceDetails": "%CustomerSeq%_cmrr_mbep2d_bold",
    "ReceiveCoilActiveElements": "HC1-7",
    "ReceiveCoilName": "HeadNeck_64",
    "ReconMatrixPE": 104,
    "RepetitionTime": 1,
    "SAR": 0.0682376,
    "ScanOptions": "FS",
    "ScanningSequence": "EP",
    "SequenceName": "epfid2d1_104",
    "SequenceVariant": "SK_SS",
    "SeriesDescription": "cmrr_mbepi_s6_2mm_66sl_PA_task-prf",
    "SeriesNumber": 28,
    "ShimSetting": [
      268,
      -12683,
      -8479,
      684,
      27,
      -214,
      121,
      -31
    ],
    "SliceThickness": 2,
    "SliceTiming": [
      0,
      0.535,
      0.09,
      0.625,
      0.18,
      0.7125,
      0.2675,
      0.8025,
      0.3575,
      0.8925,
      0.4475,
      0,
      0.535,
      0.09,
      0.625,
      0.18,
      0.7125,
      0.2675,
      0.8025,
      0.3575,
      0.8925,
      0.4475,
      0,
      0.535,
      0.09,
      0.625,
      0.18,
      0.7125,
      0.2675,
      0.8025,
      0.3575,
      0.8925,
      0.4475,
      0,
      0.535,
      0.09,
      0.625,
      0.18,
      0.7125,
      0.2675,
      0.8025,
      0.3575,
      0.8925,
      0.4475,
      0,
      0.535,
      0.09,
      0.625,
      0.18,
      0.7125,
      0.2675,
      0.8025,
      0.3575,
      0.8925,
      0.4475,
      0,
      0.535,
      0.09,
      0.625,
      0.18,
      0.7125,
      0.2675,
      0.8025,
      0.3575,
      0.8925,
      0.4475
    ],
    "SoftwareVersions": "syngo_MR_E11",
    "SpacingBetweenSlices": 2,
    "StationName": "AWP166018",
    "TaskName": "prf",
    "TotalReadoutTime": 0.0597409,
    "TxRefAmp": 229.983,
    "WipMemBlock": "7816fbbd-ffcb-42cb-9261-1e5f55231595||Sequence: R016 ve11c/master r/8780670; Nov 27 2017 15:05:12 by eja",
    "acq_id": "PA",
    "dataset": "unknown",
    "dcmmeta_affine": [
      [
        -1.9975111484527588,
        -0.049167003482580185,
        0.08678508549928665,
        109.34681701660156
      ],
      [
        -0.06997379660606384,
        1.9308418035507202,
        -0.5166755318641663,
        -70.97101593017578
      ],
      [
        0.07108244299888611,
        0.5190688967704773,
        1.930159330368042,
        -93.14346313476562
      ],
      [
        0.0,
        0.0,
        0.0,
        1.0
      ]
    ],
    "dcmmeta_reorient_transform": [
      [
        0.0,
        -1.0,
        0.0,
        103.0
      ],
      [
        1.0,
        0.0,
        0.0,
        0.0
      ],
      [
        0.0,
        0.0,
        1.0,
        0.0
      ],
      [
        0.0,
        0.0,
        0.0,
        1.0
      ]
    ],
    "dcmmeta_shape": [
      104,
      104,
      66,
      192
    ],
    "dcmmeta_slice_dim": 2,
    "dcmmeta_version": 0.6,
    "global": {
      "const": {
        "AccessionNumber": "JU45L8EW",
        "AcquisitionMatrix": [
          104,
          0,
          0,
          104
        ],
        "AngioFlag": "N",
        "BitsAllocated": 16,
        "BitsStored": 16,
        "BodyPartExamined": "BRAIN",
        "Columns": 936,
        "EchoNumbers": 1,
        "EchoTime": 37.0,
        "EchoTrainLength": 104,
        "FlipAngle": 68.0,
        "HighBit": 15,
        "ImageOrientationPatient": [
          0.9987555950964,
          0.03498689668548,
          0.0355412200685,
          -0.0245835026138,
          0.9654209056492,
          -0.2595344415193
        ],
        "ImagePositionPatient": [
          -914.79379542357,
          -960.24497851321,
          146.68298868247
        ],
        "ImageType": [
          "ORIGINAL",
          "PRIMARY",
          "M",
          "MB",
          "ND",
          "MOSAIC"
        ],
        "ImagedNucleus": "1H",
        "ImagingFrequency": 123.190971,
        "InPlanePhaseEncodingDirection": "COL",
        "MRAcquisitionType": "2D",
        "MagneticFieldStrength": 3.0,
        "Manufacturer": "SIEMENS",
        "ManufacturerModelName": "Prisma",
        "Modality": "MR",
        "NumberOfAverages": 1.0,
        "NumberOfPhaseEncodingSteps": 104,
        "PercentPhaseFieldOfView": 100.0,
        "PercentSampling": 100.0,
        "PerformedProcedureStepStartTime": "151256.218000",
        "PhotometricInterpretation": "MONOCHROME2",
        "PixelBandwidth": 2290.0,
        "PixelRepresentation": 0,
        "PixelSpacing": [
          2.0,
          2.0
        ],
        "ProtocolName": "cmrr_mbepi_s6_2mm_66sl_PA_task-prf",
        "RepetitionTime": 1000.0,
        "Rows": 936,
        "SAR": 0.06823761511738,
        "SamplesPerPixel": 1,
        "ScanOptions": "FS",
        "ScanningSequence": "EP",
        "SequenceName": "epfid2d1_104",
        "SequenceVariant": [
          "SK",
          "SS"
        ],
        "SeriesDescription": "cmrr_mbepi_s6_2mm_66sl_PA_task-prf",
        "SeriesNumber": 28,
        "SeriesTime": "160015.289000",
        "SliceLocation": -66.811532726435,
        "SliceThickness": 2.0,
        "SmallestImagePixelValue": 0,
        "SoftwareVersions": "syngo MR E11",
        "SpacingBetweenSlices": 2.00000002525,
        "SpecificCharacterSet": "ISO_IR 100",
        "StudyID": "1",
        "StudyTime": "151256.169000",
        "TransmitCoilName": "Body",
        "VariableFlipAngleFlag": "N",
        "WindowCenterWidthExplanation": "Algo1",
        "dBdt": 0.0
      },
      "slices": {}
    },
    "modality": "bold",
    "run_id": 7,
    "session_id": "nyu3t01",
    "subject_id": "wlsubj062",
    "task_id": "prf",
    "time": {
      "samples": {
        "AcquisitionNumber": [
          1,
          2,
          3,
          4,
          5,
          6,
          7,
          8,
          9,
          10,
          11,
          12,
          13,
          14,
          15,
          16,
          17,
          18,
          19,
          20,
          21,
          22,
          23,
          24,
          25,
          26,
          27,
          28,
          29,
          30,
          31,
          32,
          33,
          34,
          35,
          36,
          37,
          38,
          39,
          40,
          41,
          42,
          43,
          44,
          45,
          46,
          47,
          48,
          49,
          50,
          51,
          52,
          53,
          54,
          55,
          56,
          57,
          58,
          59,
          60,
          61,
          62,
          63,
          64,
          65,
          66,
          67,
          68,
          69,
          70,
          71,
          72,
          73,
          74,
          75,
          76,
          77,
          78,
          79,
          80,
          81,
          82,
          83,
          84,
          85,
          86,
          87,
          88,
          89,
          90,
          91,
          92,
          93,
          94,
          95,
          96,
          97,
          98,
          99,
          100,
          101,
          102,
          103,
          104,
          105,
          106,
          107,
          108,
          109,
          110,
          111,
          112,
          113,
          114,
          115,
          116,
          117,
          118,
          119,
          120,
          121,
          122,
          123,
          124,
          125,
          126,
          127,
          128,
          129,
          130,
          131,
          132,
          133,
          134,
          135,
          136,
          137,
          138,
          139,
          140,
          141,
          142,
          143,
          144,
          145,
          146,
          147,
          148,
          149,
          150,
          151,
          152,
          153,
          154,
          155,
          156,
          157,
          158,
          159,
          160,
          161,
          162,
          163,
          164,
          165,
          166,
          167,
          168,
          169,
          170,
          171,
          172,
          173,
          174,
          175,
          176,
          177,
          178,
          179,
          180,
          181,
          182,
          183,
          184,
          185,
          186,
          187,
          188,
          189,
          190,
          191,
          192
        ],
        "AcquisitionTime": [
          "155914.520000",
          "155915.520000",
          "155916.520000",
          "155917.520000",
          "155918.520000",
          "155919.520000",
          "155920.520000",
          "155921.520000",
          "155922.520000",
          "155923.520000",
          "155924.520000",
          "155925.520000",
          "155926.520000",
          "155927.520000",
          "155928.520000",
          "155929.520000",
          "155930.520000",
          "155931.520000",
          "155932.520000",
          "155933.520000",
          "155934.520000",
          "155935.520000",
          "155936.520000",
          "155937.520000",
          "155938.520000",
          "155939.520000",
          "155940.520000",
          "155941.520000",
          "155942.520000",
          "155943.520000",
          "155944.520000",
          "155945.520000",
          "155946.520000",
          "155947.520000",
          "155948.520000",
          "155949.520000",
          "155950.520000",
          "155951.520000",
          "155952.520000",
          "155953.520000",
          "155954.520000",
          "155955.520000",
          "155956.520000",
          "155957.520000",
          "155958.520000",
          "155959.520000",
          "160000.520000",
          "160001.520000",
          "160002.520000",
          "160003.520000",
          "160004.520000",
          "160005.520000",
          "160006.520000",
          "160007.520000",
          "160008.520000",
          "160009.520000",
          "160010.520000",
          "160011.520000",
          "160012.520000",
          "160013.520000",
          "160014.520000",
          "160015.520000",
          "160016.520000",
          "160017.520000",
          "160018.520000",
          "160019.520000",
          "160020.520000",
          "160021.520000",
          "160022.520000",
          "160023.520000",
          "160024.520000",
          "160025.520000",
          "160026.520000",
          "160027.520000",
          "160028.520000",
          "160029.520000",
          "160030.520000",
          "160031.520000",
          "160032.520000",
          "160033.520000",
          "160034.520000",
          "160035.520000",
          "160036.520000",
          "160037.520000",
          "160038.520000",
          "160039.520000",
          "160040.520000",
          "160041.520000",
          "160042.520000",
          "160043.520000",
          "160044.520000",
          "160045.520000",
          "160046.520000",
          "160047.520000",
          "160048.520000",
          "160049.520000",
          "160050.520000",
          "160051.520000",
          "160052.520000",
          "160053.520000",
          "160054.520000",
          "160055.520000",
          "160056.520000",
          "160057.520000",
          "160058.520000",
          "160059.520000",
          "160100.520000",
          "160101.520000",
          "160102.520000",
          "160103.520000",
          "160104.520000",
          "160105.520000",
          "160106.520000",
          "160107.520000",
          "160108.520000",
          "160109.520000",
          "160110.520000",
          "160111.520000",
          "160112.520000",
          "160113.520000",
          "160114.520000",
          "160115.520000",
          "160116.520000",
          "160117.520000",
          "160118.520000",
          "160119.520000",
          "160120.520000",
          "160121.520000",
          "160122.520000",
          "160123.520000",
          "160124.520000",
          "160125.520000",
          "160126.520000",
          "160127.520000",
          "160128.520000",
          "160129.520000",
          "160130.520000",
          "160131.520000",
          "160132.520000",
          "160133.520000",
          "160134.520000",
          "160135.520000",
          "160136.520000",
          "160137.520000",
          "160138.520000",
          "160139.520000",
          "160140.520000",
          "160141.520000",
          "160142.520000",
          "160143.520000",
          "160144.520000",
          "160145.520000",
          "160146.520000",
          "160147.520000",
          "160148.520000",
          "160149.520000",
          "160150.520000",
          "160151.520000",
          "160152.520000",
          "160153.520000",
          "160154.520000",
          "160155.520000",
          "160156.520000",
          "160157.520000",
          "160158.520000",
          "160159.520000",
          "160200.520000",
          "160201.520000",
          "160202.520000",
          "160203.520000",
          "160204.520000",
          "160205.520000",
          "160206.520000",
          "160207.520000",
          "160208.520000",
          "160209.520000",
          "160210.520000",
          "160211.520000",
          "160212.520000",
          "160213.520000",
          "160214.520000",
          "160215.520000",
          "160216.520000",
          "160217.520000",
          "160218.520000",
          "160219.520000",
          "160220.520000",
          "160221.520000",
          "160222.520000",
          "160223.520000",
          "160224.520000",
          "160225.520000"
        ],
        "ContentTime": [
          "160015.291000",
          "160015.295000",
          "160015.297000",
          "160015.300000",
          "160015.303000",
          "160015.316000",
          "160015.319000",
          "160020.291000",
          "160020.294000",
          "160020.297000",
          "160020.300000",
          "160020.306000",
          "160020.309000",
          "160020.311000",
          "160025.291000",
          "160025.294000",
          "160025.297000",
          "160025.300000",
          "160025.303000",
          "160025.305000",
          "160025.308000",
          "160030.291000",
          "160030.294000",
          "160030.297000",
          "160030.300000",
          "160030.303000",
          "160030.305000",
          "160030.308000",
          "160035.290000",
          "160035.293000",
          "160035.296000",
          "160035.299000",
          "160035.302000",
          "160035.305000",
          "160035.307000",
          "160040.291000",
          "160040.294000",
          "160040.297000",
          "160040.300000",
          "160040.303000",
          "160040.305000",
          "160040.308000",
          "160045.291000",
          "160045.294000",
          "160045.297000",
          "160045.300000",
          "160045.303000",
          "160045.306000",
          "160045.309000",
          "160050.290000",
          "160050.293000",
          "160050.296000",
          "160050.299000",
          "160050.302000",
          "160050.304000",
          "160050.307000",
          "160050.310000",
          "160055.291000",
          "160055.297000",
          "160055.300000",
          "160055.303000",
          "160055.306000",
          "160055.310000",
          "160100.291000",
          "160100.294000",
          "160100.297000",
          "160100.300000",
          "160100.303000",
          "160100.305000",
          "160100.308000",
          "160100.311000",
          "160105.291000",
          "160105.294000",
          "160105.297000",
          "160105.300000",
          "160105.303000",
          "160105.305000",
          "160105.308000",
          "160110.290000",
          "160110.293000",
          "160110.296000",
          "160110.299000",
          "160110.302000",
          "160110.304000",
          "160110.307000",
          "160115.291000",
          "160115.294000",
          "160115.297000",
          "160115.300000",
          "160115.302000",
          "160115.305000",
          "160115.308000",
          "160120.291000",
          "160120.294000",
          "160120.297000",
          "160120.300000",
          "160120.303000",
          "160120.305000",
          "160120.308000",
          "160125.290000",
          "160125.293000",
          "160125.296000",
          "160125.299000",
          "160125.302000",
          "160125.305000",
          "160125.307000",
          "160130.291000",
          "160130.294000",
          "160130.297000",
          "160130.312000",
          "160130.315000",
          "160130.318000",
          "160130.320000",
          "160135.291000",
          "160135.294000",
          "160135.297000",
          "160135.300000",
          "160135.303000",
          "160135.306000",
          "160135.308000",
          "160140.291000",
          "160140.294000",
          "160140.297000",
          "160140.300000",
          "160140.303000",
          "160140.306000",
          "160140.308000",
          "160145.290000",
          "160145.293000",
          "160145.296000",
          "160145.299000",
          "160145.302000",
          "160145.305000",
          "160145.308000",
          "160150.291000",
          "160150.294000",
          "160150.297000",
          "160150.300000",
          "160150.303000",
          "160150.306000",
          "160150.310000",
          "160155.291000",
          "160155.294000",
          "160155.297000",
          "160155.300000",
          "160155.303000",
          "160155.306000",
          "160155.309000",
          "160200.290000",
          "160200.293000",
          "160200.296000",
          "160200.299000",
          "160200.302000",
          "160200.305000",
          "160200.308000",
          "160205.291000",
          "160205.294000",
          "160205.297000",
          "160205.300000",
          "160205.303000",
          "160205.306000",
          "160205.309000",
          "160210.291000",
          "160210.294000",
          "160210.297000",
          "160210.300000",
          "160210.303000",
          "160210.305000",
          "160210.308000",
          "160210.311000",
          "160215.291000",
          "160215.294000",
          "160215.316000",
          "160215.319000",
          "160215.322000",
          "160215.325000",
          "160215.328000",
          "160220.290000",
          "160220.293000",
          "160220.296000",
          "160220.299000",
          "160220.302000",
          "160220.304000",
          "160220.307000",
          "160225.291000",
          "160225.294000",
          "160225.297000",
          "160225.300000",
          "160225.303000",
          "160227.652000",
          "160227.656000",
          "160227.659000"
        ],
        "InstanceCreationTime": [
          "160015.291000",
          "160015.295000",
          "160015.297000",
          "160015.300000",
          "160015.303000",
          "160015.316000",
          "160015.319000",
          "160020.291000",
          "160020.294000",
          "160020.297000",
          "160020.300000",
          "160020.306000",
          "160020.309000",
          "160020.311000",
          "160025.291000",
          "160025.294000",
          "160025.297000",
          "160025.300000",
          "160025.303000",
          "160025.305000",
          "160025.308000",
          "160030.291000",
          "160030.294000",
          "160030.297000",
          "160030.300000",
          "160030.303000",
          "160030.305000",
          "160030.308000",
          "160035.290000",
          "160035.293000",
          "160035.296000",
          "160035.299000",
          "160035.302000",
          "160035.305000",
          "160035.307000",
          "160040.291000",
          "160040.294000",
          "160040.297000",
          "160040.300000",
          "160040.303000",
          "160040.305000",
          "160040.308000",
          "160045.291000",
          "160045.294000",
          "160045.297000",
          "160045.300000",
          "160045.303000",
          "160045.306000",
          "160045.309000",
          "160050.290000",
          "160050.293000",
          "160050.296000",
          "160050.299000",
          "160050.302000",
          "160050.304000",
          "160050.307000",
          "160050.310000",
          "160055.291000",
          "160055.297000",
          "160055.300000",
          "160055.303000",
          "160055.306000",
          "160055.310000",
          "160100.291000",
          "160100.294000",
          "160100.297000",
          "160100.300000",
          "160100.303000",
          "160100.305000",
          "160100.308000",
          "160100.311000",
          "160105.291000",
          "160105.294000",
          "160105.297000",
          "160105.300000",
          "160105.303000",
          "160105.305000",
          "160105.308000",
          "160110.290000",
          "160110.293000",
          "160110.296000",
          "160110.299000",
          "160110.302000",
          "160110.304000",
          "160110.307000",
          "160115.291000",
          "160115.294000",
          "160115.297000",
          "160115.300000",
          "160115.302000",
          "160115.305000",
          "160115.308000",
          "160120.291000",
          "160120.294000",
          "160120.297000",
          "160120.300000",
          "160120.303000",
          "160120.305000",
          "160120.308000",
          "160125.290000",
          "160125.293000",
          "160125.296000",
          "160125.299000",
          "160125.302000",
          "160125.305000",
          "160125.307000",
          "160130.291000",
          "160130.294000",
          "160130.297000",
          "160130.312000",
          "160130.315000",
          "160130.318000",
          "160130.320000",
          "160135.291000",
          "160135.294000",
          "160135.297000",
          "160135.300000",
          "160135.303000",
          "160135.306000",
          "160135.308000",
          "160140.291000",
          "160140.294000",
          "160140.297000",
          "160140.300000",
          "160140.303000",
          "160140.306000",
          "160140.308000",
          "160145.290000",
          "160145.293000",
          "160145.296000",
          "160145.299000",
          "160145.302000",
          "160145.305000",
          "160145.308000",
          "160150.291000",
          "160150.294000",
          "160150.297000",
          "160150.300000",
          "160150.303000",
          "160150.306000",
          "160150.310000",
          "160155.291000",
          "160155.294000",
          "160155.297000",
          "160155.300000",
          "160155.303000",
          "160155.306000",
          "160155.309000",
          "160200.290000",
          "160200.293000",
          "160200.296000",
          "160200.299000",
          "160200.302000",
          "160200.305000",
          "160200.308000",
          "160205.291000",
          "160205.294000",
          "160205.297000",
          "160205.300000",
          "160205.303000",
          "160205.306000",
          "160205.309000",
          "160210.291000",
          "160210.294000",
          "160210.297000",
          "160210.300000",
          "160210.303000",
          "160210.305000",
          "160210.308000",
          "160210.311000",
          "160215.291000",
          "160215.294000",
          "160215.316000",
          "160215.319000",
          "160215.322000",
          "160215.325000",
          "160215.328000",
          "160220.290000",
          "160220.293000",
          "160220.296000",
          "160220.299000",
          "160220.302000",
          "160220.304000",
          "160220.307000",
          "160225.291000",
          "160225.294000",
          "160225.297000",
          "160225.300000",
          "160225.303000",
          "160227.652000",
          "160227.656000",
          "160227.659000"
        ],
        "InstanceNumber": [
          1,
          2,
          3,
          4,
          5,
          6,
          7,
          8,
          9,
          10,
          11,
          12,
          13,
          14,
          15,
          16,
          17,
          18,
          19,
          20,
          21,
          22,
          23,
          24,
          25,
          26,
          27,
          28,
          29,
          30,
          31,
          32,
          33,
          34,
          35,
          36,
          37,
          38,
          39,
          40,
          41,
          42,
          43,
          44,
          45,
          46,
          47,
          48,
          49,
          50,
          51,
          52,
          53,
          54,
          55,
          56,
          57,
          58,
          59,
          60,
          61,
          62,
          63,
          64,
          65,
          66,
          67,
          68,
          69,
          70,
          71,
          72,
          73,
          74,
          75,
          76,
          77,
          78,
          79,
          80,
          81,
          82,
          83,
          84,
          85,
          86,
          87,
          88,
          89,
          90,
          91,
          92,
          93,
          94,
          95,
          96,
          97,
          98,
          99,
          100,
          101,
          102,
          103,
          104,
          105,
          106,
          107,
          108,
          109,
          110,
          111,
          112,
          113,
          114,
          115,
          116,
          117,
          118,
          119,
          120,
          121,
          122,
          123,
          124,
          125,
          126,
          127,
          128,
          129,
          130,
          131,
          132,
          133,
          134,
          135,
          136,
          137,
          138,
          139,
          140,
          141,
          142,
          143,
          144,
          145,
          146,
          147,
          148,
          149,
          150,
          151,
          152,
          153,
          154,
          155,
          156,
          157,
          158,
          159,
          160,
          161,
          162,
          163,
          164,
          165,
          166,
          167,
          168,
          169,
          170,
          171,
          172,
          173,
          174,
          175,
          176,
          177,
          178,
          179,
          180,
          181,
          182,
          183,
          184,
          185,
          186,
          187,
          188,
          189,
          190,
          191,
          192
        ],
        "LargestImagePixelValue": [
          43236,
          42502,
          42198,
          40942,
          41065,
          40845,
          40432,
          40936,
          40766,
          41372,
          40229,
          41487,
          41361,
          40356,
          40357,
          40845,
          40415,
          40257,
          41281,
          40935,
          41670,
          40065,
          41111,
          41418,
          41240,
          40623,
          41006,
          41015,
          40935,
          41401,
          41328,
          41216,
          41163,
          41147,
          41609,
          40981,
          41168,
          40791,
          40536,
          40327,
          40893,
          41300,
          40866,
          40295,
          41186,
          41483,
          41349,
          41061,
          40894,
          40838,
          40914,
          40133,
          41124,
          41594,
          40797,
          41184,
          41246,
          41214,
          40731,
          41226,
          41388,
          41654,
          41456,
          41271,
          41171,
          40959,
          41429,
          41688,
          40720,
          41295,
          41483,
          40605,
          40940,
          40693,
          40250,
          39832,
          40546,
          40274,
          40871,
          41178,
          41939,
          41297,
          41400,
