{
  "AcquisitionMatrixPE": 104,
  "AcquisitionNumber": 1,
  "AcquisitionTime": "11:23:49.835000",
  "BandwidthPerPixelPhaseEncode": 16.578,
  "BaseResolution": 104,
  "BodyPartExamined": "BRAIN",
  "ConsistencyInfo": "N4_VE11C_LATEST_20160120",
  "ConversionSoftware": "dcm2niix",
  "ConversionSoftwareVersion": "v1.0.20190902",
  "DerivedVendorReportedEchoSpacing": 0.000580009,
  "DeviceSerialNumber": "166018",
  "DwellTime": 2.1e-06,
  "EchoTime": 0.037,
  "EchoTrainLength": 104,
  "EffectiveEchoSpacing": 0.000580009,
  "FlipAngle": 68,
  "ImageComments": "Unaliased_MB6_PE3_LB",
  "ImageOrientationPatientDICOM": [0.9986, 0.0527384, 0.00419263, -0.0509364, 0.979837, -0.193198],
  "ImageType": [
    "ORIGINAL",
    "PRIMARY",
    "M",
    "MB",
    "ND",
    "MOSAIC"
],
  "ImagingFrequency": 123.191,
  "InPlanePhaseEncodingDirectionDICOM": "COL",
  "InstitutionAddress": "Washington_Place_6_NYC_NYC_US_10003",
  "InstitutionName": "NYU_-_CBI",
  "InstitutionalDepartmentName": "Department",
  "MRAcquisitionType": "2D",
  "MagneticFieldStrength": 3,
  "Manufacturer": "Siemens",
  "ManufacturersModelName": "Prisma",
  "Modality": "MR",
  "MultibandAccelerationFactor": 6,
  "PartialFourier": 1,
  "PatientPosition": "HFS",
  "PercentPhaseFOV": 100,
  "PhaseEncodingDirection": "j",
  "PhaseEncodingSteps": 104,
  "PhaseResolution": 1,
  "PixelBandwidth": 2290,
  "ProcedureStepDescription": "Investigators_Winawer",
  "ProtocolName": "cmrr_mbepi_s6_2mm_66sl_PA_task-prf",
  "PulseSequenceDetails": "%CustomerSeq%_cmrr_mbep2d_bold",
  "ReceiveCoilActiveElements": "HC1-7",
  "ReceiveCoilName": "HeadNeck_64",
  "ReconMatrixPE": 104,
  "RepetitionTime": 1,
  "SAR": 0.0698491,
  "ScanOptions": "FS",
  "ScanningSequence": "EP",
  "SequenceName": "epfid2d1_104",
  "SequenceVariant": "SK_SS",
  "SeriesDescription": "cmrr_mbepi_s6_2mm_66sl_PA_task-prf",
  "SeriesNumber": 8,
  "ShimSetting": [240, -12627, -8425, 410, -10, -157, -141, 22],
  "SliceThickness": 2,
  "SliceTiming": [0, 0.535, 0.09, 0.625, 0.18, 0.7125, 0.2675, 0.8025, 0.3575, 0.8925, 0.445, 0, 0.535, 0.09, 0.625, 0.18, 0.7125, 0.2675, 0.8025, 0.3575, 0.8925, 0.445, 0, 0.535, 0.09, 0.625, 0.18, 0.7125, 0.2675, 0.8025, 0.3575, 0.8925, 0.445, 0, 0.535, 0.09, 0.625, 0.18, 0.7125, 0.2675, 0.8025, 0.3575, 0.8925, 0.445, 0, 0.535, 0.09, 0.625, 0.18, 0.7125, 0.2675, 0.8025, 0.3575, 0.8925, 0.445, 0, 0.535, 0.09, 0.625, 0.18, 0.7125, 0.2675, 0.8025, 0.3575, 0.8925, 0.445],
  "SoftwareVersions": "syngo_MR_E11",
  "SpacingBetweenSlices": 2,
  "StationName": "AWP166018",
  "TaskName": "prf",
  "TotalReadoutTime": 0.0597409,
  "TxRefAmp": 209.192,
  "WipMemBlock": "391e88cc-581d-4e47-a062-36d3d810b2f3||Sequence: R016 ve11c/master r/8780670; Nov 27 2017 15:05:12 by eja",
  "dcmmeta_affine": [
    [-1.9971991777420044, -0.10187274217605591, 0.02859412133693695, 115.3166732788086],
    [-0.10547684878110886, 1.9596734046936035, -0.3854280412197113, -71.6098861694336],
    [0.008385265246033669, 0.38639625906944275, 1.9623016119003296, -62.766014099121094],
    [0.0, 0.0, 0.0, 1.0]
],
  "dcmmeta_reorient_transform": [
    [0.0, -1.0, 0.0, 103.0],
    [1.0, 0.0, 0.0, 0.0],
    [0.0, 0.0, 1.0, 0.0],
    [0.0, 0.0, 0.0, 1.0]
],
  "dcmmeta_shape": [104, 104, 66, 192],
  "dcmmeta_slice_dim": 2,
  "dcmmeta_version": 0.6,
  "global": {
    "const": {
      "AccessionNumber": "jxw5tytt",
      "AcquisitionMatrix": [104, 0, 0, 104],
      "AngioFlag": "N",
      "BitsAllocated": 16,
      "BitsStored": 16,
      "BodyPartExamined": "BRAIN",
      "Columns": 936,
      "EchoNumbers": 1,
      "EchoTime": 37.0,
      "EchoTrainLength": 104,
      "FlipAngle": 68.0,
      "HighBit": 15,
      "ImageOrientationPatient": [0.99859955954261, 0.05273842537912, 0.00419263280496, -0.0509363694073, 0.97983670400195, -0.1931981360215],
      "ImagePositionPatient": [-893.27955590703, -989.33898252341, 134.28537934324],
      "ImageType": [
        "ORIGINAL",
        "PRIMARY",
        "M",
        "MB",
        "ND",
        "MOSAIC"
],
      "ImagedNucleus": "1H",
      "ImagingFrequency": 123.191107,
      "InPlanePhaseEncodingDirection": "COL",
      "MRAcquisitionType": "2D",
      "MagneticFieldStrength": 3.0,
      "Manufacturer": "SIEMENS",
      "ManufacturerModelName": "Prisma",
      "Modality": "MR",
      "NumberOfAverages": 1.0,
      "NumberOfPhaseEncodingSteps": 104,
      "PercentPhaseFieldOfView": 100.0,
      "PercentSampling": 100.0,
      "PerformedProcedureStepStartTime": "110536.164000",
      "PhotometricInterpretation": "MONOCHROME2",
      "PixelBandwidth": 2290.0,
      "PixelRepresentation": 0,
      "PixelSpacing": [2.0, 2.0],
      "ProtocolName": "cmrr_mbepi_s6_2mm_66sl_PA_task-prf",
      "RepetitionTime": 1000.0,
      "Rows": 936,
      "SAR": 0.06984905528673,
      "SamplesPerPixel": 1,
      "ScanOptions": "FS",
      "ScanningSequence": "EP",
      "SequenceName": "epfid2d1_104",
      "SequenceVariant": [
        "SK",
        "SS"
],
      "SeriesDescription": "cmrr_mbepi_s6_2mm_66sl_PA_task-prf",
      "SeriesNumber": 8,
      "SeriesTime": "112512.861000",
      "SliceLocation": -46.134008221898,
      "SliceThickness": 2.0,
      "SmallestImagePixelValue": 0,
      "SoftwareVersions": "syngo MR E11",
      "SpacingBetweenSlices": 2.000000018924,
      "SpecificCharacterSet": "ISO_IR 100",
      "StudyID": "1",
      "StudyTime": "110536.105000",
      "TransmitCoilName": "Body",
      "VariableFlipAngleFlag": "N",
      "WindowCenterWidthExplanation": "Algo1",
      "dBdt": 0.0},
    "slices": {}
  },
  "time": {
    "samples": {
      "AcquisitionNumber": [1, 2, 3, 4, 5, 6, 7, 8, 9, 10, 11, 12, 13, 14, 15, 16, 17, 18, 19, 20, 21, 22, 23, 24, 25, 26, 27, 28, 29, 30, 31, 32, 33, 34, 35, 36, 37, 38, 39, 40, 41, 42, 43, 44, 45, 46, 47, 48, 49, 50, 51, 52, 53, 54, 55, 56, 57, 58, 59, 60, 61, 62, 63, 64, 65, 66, 67, 68, 69, 70, 71, 72, 73, 74, 75, 76, 77, 78, 79, 80, 81, 82, 83, 84, 85, 86, 87, 88, 89, 90, 91, 92, 93, 94, 95, 96, 97, 98, 99, 100, 101, 102, 103, 104, 105, 106, 107, 108, 109, 110, 111, 112, 113, 114, 115, 116, 117, 118, 119, 120, 121, 122, 123, 124, 125, 126, 127, 128, 129, 130, 131, 132, 133, 134, 135, 136, 137, 138, 139, 140, 141, 142, 143, 144, 145, 146, 147, 148, 149, 150, 151, 152, 153, 154, 155, 156, 157, 158, 159, 160, 161, 162, 163, 164, 165, 166, 167, 168, 169, 170, 171, 172, 173, 174, 175, 176, 177, 178, 179, 180, 181, 182, 183, 184, 185, 186, 187, 188, 189, 190, 191, 192],
      "AcquisitionTime": ["112349.835000", "112350.835000", "112351.835000", "112352.835000", "112353.835000", "112354.835000", "112355.835000", "112356.835000", "112357.835000", "112358.835000", "112359.835000", "112400.835000", "112401.835000", "112402.835000", "112403.835000", "112404.835000", "112405.835000", "112406.835000", "112407.835000", "112408.835000", "112409.835000", "112410.835000", "112411.835000", "112412.835000", "112413.835000", "112414.835000", "112415.835000", "112416.835000", "112417.835000", "112418.835000", "112419.835000", "112420.835000", "112421.835000", "112422.835000", "112423.835000", "112424.835000", "112425.835000", "112426.835000", "112427.835000", "112428.835000", "112429.835000", "112430.835000", "112431.835000", "112432.835000", "112433.835000", "112434.835000", "112435.835000", "112436.835000", "112437.835000", "112438.835000", "112439.835000", "112440.835000", "112441.835000", "112442.835000", "112443.835000", "112444.835000", "112445.835000", "112446.835000", "112447.835000", "112448.835000", "112449.835000", "112450.835000", "112451.835000", "112452.835000", "112453.835000", "112454.835000", "112455.835000", "112456.835000", "112457.835000", "112458.835000", "112459.835000", "112500.835000", "112501.835000", "112502.835000", "112503.835000", "112504.835000", "112505.835000", "112506.835000", "112507.835000", "112508.835000", "112509.835000", "112510.835000", "112511.835000", "112512.835000", "112513.835000", "112514.835000", "112515.835000", "112516.835000", "112517.835000", "112518.835000", "112519.835000", "112520.835000", "112521.835000", "112522.835000", "112523.835000", "112524.835000", "112525.835000", "112526.835000", "112527.835000", "112528.835000", "112529.835000", "112530.835000", "112531.835000", "112532.835000", "112533.835000", "112534.835000", "112535.835000", "112536.835000", "112537.835000", "112538.835000", "112539.835000", "112540.835000", "112541.835000", "112542.835000", "112543.835000", "112544.835000", "112545.835000", "112546.835000", "112547.835000", "112548.835000", "112549.835000", "112550.835000", "112551.835000", "112552.835000", "112553.835000", "112554.835000", "112555.835000", "112556.835000", "112557.835000", "112558.835000", "112559.835000", "112600.835000", "112601.835000", "112602.835000", "112603.835000", "112604.835000", "112605.835000", "112606.835000", "112607.835000", "112608.835000", "112609.835000", "112610.835000", "112611.835000", "112612.835000", "112613.835000", "112614.835000", "112615.835000", "112616.835000", "112617.835000", "112618.835000", "112619.835000", "112620.835000", "112621.835000", "112622.835000", "112623.835000", "112624.835000", "112625.835000", "112626.835000", "112627.835000", "112628.835000", "112629.835000", "112630.835000", "112631.835000", "112632.835000", "112633.835000", "112634.835000", "112635.835000", "112636.835000", "112637.835000", "112638.835000", "112639.835000", "112640.835000", "112641.835000", "112642.835000", "112643.835000", "112644.835000", "112645.835000", "112646.835000", "112647.835000", "112648.835000", "112649.835000", "112650.835000", "112651.835000", "112652.835000", "112653.835000", "112654.835000", "112655.835000", "112656.835000", "112657.835000", "112658.835000", "112659.835000", "112700.835000"],
      "ContentTime": ["112512.864000", "112512.868000", "112512.872000", "112512.875000", "112512.877000", "112512.890000", "112512.893000", "112512.896000", "112512.899000", "112512.902000", "112512.905000", "112512.908000", "112512.911000", "112512.914000", "112512.917000", "112512.920000", "112512.923000", "112512.926000", "112512.929000", "112512.932000", "112512.935000", "112512.938000", "112512.941000", "112512.944000", "112512.947000", "112512.950000", "112512.953000", "112512.956000", "112512.959000", "112512.962000", "112512.966000", "112512.968000", "112512.971000", "112512.974000", "112512.977000", "112512.980000", "112512.983000", "112512.986000", "112512.990000", "112512.992000", "112512.995000", "112512.998000", "112513.003000", "112513.006000", "112513.009000", "112513.011000", "112532.831000", "112532.836000", "112532.839000", "112532.842000", "112532.845000", "112532.848000", "112532.851000", "112532.854000", "112532.857000", "112532.860000", "112532.863000", "112532.866000", "112532.869000", "112532.872000", "112532.875000", "112532.878000", "112532.881000", "112532.884000", "112532.887000", "112532.890000", "112532.893000", "112532.896000", "112532.899000", "112532.902000", "112532.905000", "112532.908000", "112532.911000", "112532.914000", "112552.831000", "112552.834000", "112552.837000", "112552.840000", "112552.843000", "112552.846000", "112552.849000", "112552.852000", "112552.855000", "112552.858000", "112552.861000", "112552.864000", "112552.867000", "112552.870000", "112552.873000", "112552.876000", "112552.879000", "112552.882000", "112552.885000", "112552.888000", "112552.891000", "112552.894000", "112552.897000", "112552.900000", "112552.903000", "112552.906000", "112552.909000", "112552.913000", "112612.831000", "112612.834000", "112612.837000", "112612.840000", "112612.843000", "112612.846000", "112612.849000", "112612.852000", "112612.855000", "112612.858000", "112612.861000", "112612.864000", "112612.867000", "112612.870000", "112612.873000", "112612.876000", "112612.879000", "112612.882000", "112612.885000", "112612.888000", "112612.891000", "112612.905000", "112612.908000", "112612.911000", "112612.914000", "112612.917000", "112612.920000", "112612.923000", "112632.832000", "112632.835000", "112632.838000", "112632.841000", "112632.844000", "112632.847000", "112632.850000", "112632.859000", "112632.862000", "112632.865000", "112632.868000", "112632.871000", "112632.874000", "112632.876000", "112632.880000", "112632.883000", "112632.886000", "112632.889000", "112632.892000", "112632.895000", "112632.898000", "112632.901000", "112632.904000", "112632.907000", "112632.910000", "112632.913000", "112632.916000", "112632.919000", "112652.832000", "112652.835000", "112652.838000", "112652.841000", "112652.844000", "112652.847000", "112652.850000", "112652.853000", "112652.856000", "112652.859000", "112652.862000", "112652.866000", "112652.869000", "112652.872000", "112652.875000", "112652.878000", "112652.881000", "112652.884000", "112652.887000", "112652.890000", "112652.893000", "112652.896000", "112652.899000", "112652.914000", "112702.261000", "112702.264000", "112702.267000", "112702.270000", "112702.273000", "112702.276000", "112702.279000", "112702.282000", "112702.285000", "112702.288000"],
      "InstanceCreationTime": ["112512.864000", "112512.868000", "112512.872000", "112512.875000", "112512.877000", "112512.890000", "112512.893000", "112512.896000", "112512.899000", "112512.902000", "112512.905000", "112512.908000", "112512.911000", "112512.914000", "112512.917000", "112512.920000", "112512.923000", "112512.926000", "112512.929000", "112512.932000", "112512.935000", "112512.938000", "112512.941000", "112512.944000", "112512.947000", "112512.950000", "112512.953000", "112512.956000", "112512.959000", "112512.962000", "112512.966000", "112512.968000", "112512.971000", "112512.974000", "112512.977000", "112512.980000", "112512.983000", "112512.986000", "112512.990000", "112512.992000", "112512.995000", "112512.998000", "112513.003000", "112513.006000", "112513.009000", "112513.011000", "112532.831000", "112532.836000", "112532.839000", "112532.842000", "112532.845000", "112532.848000", "112532.851000", "112532.854000", "112532.857000", "112532.860000", "112532.863000", "112532.866000", "112532.869000", "112532.872000", "112532.875000", "112532.878000", "112532.881000", "112532.884000", "112532.887000", "112532.890000", "112532.893000", "112532.896000", "112532.899000", "112532.902000", "112532.905000", "112532.908000", "112532.911000", "112532.914000", "112552.831000", "112552.834000", "112552.837000", "112552.840000", "112552.843000", "112552.846000", "112552.849000", "112552.852000", "112552.855000", "112552.858000", "112552.861000", "112552.864000", "112552.867000", "112552.870000", "112552.873000", "112552.876000", "112552.879000", "112552.882000", "112552.885000", "112552.888000", "112552.891000", "112552.894000", "112552.897000", "112552.900000", "112552.903000", "112552.906000", "112552.909000", "112552.913000", "112612.831000", "112612.834000", "112612.837000", "112612.840000", "112612.843000", "112612.846000", "112612.849000", "112612.852000", "112612.855000", "112612.858000", "112612.861000", "112612.864000", "112612.867000", "112612.870000", "112612.873000", "112612.876000", "112612.879000", "112612.882000", "112612.885000", "112612.888000", "112612.891000", "112612.905000", "112612.908000", "112612.911000", "112612.914000", "112612.917000", "112612.920000", "112612.923000", "112632.832000", "112632.835000", "112632.838000", "112632.841000", "112632.844000", "112632.847000", "112632.850000", "112632.859000", "112632.862000", "112632.865000", "112632.868000", "112632.871000", "112632.874000", "112632.876000", "112632.880000", "112632.883000", "112632.886000", "112632.889000", "112632.892000", "112632.895000", "112632.898000", "112632.901000", "112632.904000", "112632.907000", "112632.910000", "112632.913000", "112632.916000", "112632.919000", "112652.832000", "112652.835000", "112652.838000", "112652.841000", "112652.844000", "112652.847000", "112652.850000", "112652.853000", "112652.856000", "112652.859000", "112652.862000", "112652.866000", "112652.869000", "112652.872000", "112652.875000", "112652.878000", "112652.881000", "112652.884000", "112652.887000", "112652.890000", "112652.893000", "112652.896000", "112652.899000", "112652.914000", "112702.261000", "112702.264000", "112702.267000", "112702.270000", "112702.273000", "112702.276000", "112702.279000", "112702.282000", "112702.285000", "112702.288000"],
      "InstanceNumber": [1, 2, 3, 4, 5, 6, 7, 8, 9, 10, 11, 12, 13, 14, 15, 16, 17, 18, 19, 20, 21, 22, 23, 24, 25, 26, 27, 28, 29, 30, 31, 32, 33, 34, 35, 36, 37, 38, 39, 40, 41, 42, 43, 44, 45, 46, 47, 48, 49, 50, 51, 52, 53, 54, 55, 56, 57, 58, 59, 60, 61, 62, 63, 64, 65, 66, 67, 68, 69, 70, 71, 72, 73, 74, 75, 76, 77, 78, 79, 80, 81, 82, 83, 84, 85, 86, 87, 88, 89, 90, 91, 92, 93, 94, 95, 96, 97, 98, 99, 100, 101, 102, 103, 104, 105, 106, 107, 108, 109, 110, 111, 112, 113, 114, 115, 116, 117, 118, 119, 120, 121, 122, 123, 124, 125, 126, 127, 128, 129, 130, 131, 132, 133, 134, 135, 136, 137, 138, 139, 140, 141, 142, 143, 144, 145, 146, 147, 148, 149, 150, 151, 152, 153, 154, 155, 156, 157, 158, 159, 160, 161, 162, 163, 164, 165, 166, 167, 168, 169, 170, 171, 172, 173, 174, 175, 176, 177, 178, 179, 180, 181, 182, 183, 184, 185, 186, 187, 188, 189, 190, 191, 192],
      "LargestImagePixelValue": [40223, 39936, 38920, 38744, 38264, 38121, 38115, 38316, 38520, 38113, 38172, 38207, 37727, 37646, 38344, 37821, 37952, 38382, 38213, 38122, 38238, 38172, 38315, 38390, 38363, 38573, 38448, 38791, 38564, 38594, 38357, 38816, 38469, 38357, 38745, 38270, 38474, 38446, 38566, 38699, 38453, 38326, 38530, 38511, 38712, 38368, 38517, 38563, 38606, 38515, 38432, 38752, 38452, 38588, 38652, 38373, 38382, 38334, 38240, 38571, 38736, 38523, 38854, 38989, 38753, 38819, 38531, 38066, 38838, 38594, 38576, 38914, 38753, 38669, 38638, 38343, 38544, 38581, 38449, 38764, 38214, 37730, 38541, 38204, 38126, 38542, 38283, 38044, 38609, 38497, 38483, 38502, 38982, 38410, 38473, 39040, 38770, 38582, 39191, 38893, 38836, 38701, 39040, 38564, 38351, 38946, 38458, 38613, 38162, 38907, 38188, 38103, 37914, 38389, 38119, 37895, 37916, 37910, 37593, 38026, 37443, 37658, 37790, 37775, 38160, 38293, 38043, 38073, 37895, 37848, 37796, 37484, 37807, 37682, 37643, 38005, 37706, 37769, 37726, 38178, 38260, 37989, 37618, 38238, 38368, 37837, 37540, 38441, 37562, 38024, 37744, 38078, 37803, 37846, 37745, 38155, 38267, 37815, 37731, 37782, 38119, 37410, 37684, 38030, 37619, 37969, 38020, 38022, 37680, 37742, 37661, 37678, 38063, 37892, 38079, 37919, 37765, 37633, 37553, 37918, 38115, 37644, 37618, 37940, 37644, 37423, 37709, 37734, 37599, 38054, 37753, 37615],
      "WindowCenter": [10414.0, 10375.0, 10335.0, 10317.0, 10308.0, 10296.0, 10294.0, 10285.0, 10285.0, 10287.0, 10292.0, 10286.0, 10289.0, 10295.0, 10308.0, 10297.0, 10303.0, 10303.0, 10297.0, 10296.0, 10289.0, 10293.0, 10293.0, 10292.0, 10299.0, 10301.0, 10300.0, 10301.0, 10301.0, 10317.0, 10325.0, 10330.0, 10327.0, 10330.0, 10340.0, 10330.0, 10330.0, 10322.0, 10326.0, 10324.0, 10324.0, 10319.0, 10313.0, 10303.0, 10300.0, 10301.0, 10295.0, 10298.0, 10298.0, 10302.0, 10300.0, 10306.0, 10302.0, 10306.0, 10301.0, 10287.0, 10292.0, 10292.0, 10285.0, 10290.0, 10290.0, 10284.0, 10289.0, 10299.0, 10307.0, 10303.0, 10305.0, 10305.0, 10309.0, 10308.0, 10310.0, 10317.0, 10316.0, 10310.0, 10311.0, 10312.0, 10305.0, 10308.0, 10311.0, 10309.0, 10299.0, 10301.0, 10306.0, 10306.0, 10307.0, 10312.0, 10305.0, 10293.0, 10302.0, 10296.0, 10282.0, 10270.0, 10275.0, 10273.0, 10278.0, 10283.0, 10285.0, 10285.0, 10290.0, 10299.0, 10302.0, 10302.0, 10299.0, 10301.0, 10298.0, 10298.0, 10293.0, 10294.0, 10282.0, 10286.0, 10281.0, 10288.0, 10277.0, 10282.0, 10282.0, 10282.0, 10275.0, 10275.0, 10277.0, 10290.0, 10285.0, 10289.0, 10291.0, 10292.0, 10291.0, 10295.0, 10290.0, 10296.0, 10291.0, 10292.0, 10300.0, 10301.0, 10300.0, 10301.0, 10301.0, 10301.0, 10302.0, 10302.0, 10295.0, 10293.0, 10296.0, 10298.0, 10294.0, 10292.0, 10290.0, 10286.0, 10286.0, 10291.0, 10288.0, 10300.0, 10301.0, 10300.0, 10295.0, 10295.0, 10294.0, 10286.0, 10284.0, 10285.0, 10287.0, 10286.0, 10298.0, 10294.0, 10301.0, 10306.0, 10301.0, 10305.0, 10307.0, 10307.0, 10301.0, 10309.0, 10310.0, 10309.0, 10321.0, 10311.0, 10310.0, 10309.0, 10303.0, 10295.0, 10288.0, 10287.0, 10285.0, 10278.0, 10279.0, 10291.0, 10287.0, 10282.0, 10292.0, 10292.0, 10282.0, 10283.0, 10284.0, 10285.0],
      "WindowWidth": [22455.0, 22340.0, 22242.0, 22193.0, 22174.0, 22145.0, 22140.0, 22118.0, 22119.0, 22124.0, 22132.0, 22121.0, 22127.0, 22142.0, 22168.0, 22149.0, 22161.0, 22164.0, 22150.0, 22146.0, 22129.0, 22134.0, 22132.0, 22127.0, 22141.0, 22146.0, 22145.0, 22148.0, 22149.0, 22186.0, 22205.0, 22215.0, 22211.0, 22219.0, 22239.0, 22220.0, 22220.0, 22204.0, 22210.0, 22204.0, 22205.0, 22192.0, 22176.0, 22148.0, 22141.0, 22142.0, 22132.0, 22136.0, 22138.0, 22147.0, 22142.0, 22157.0, 22152.0, 22159.0, 22148.0, 22115.0, 22127.0, 22126.0, 22112.0, 22119.0, 22120.0, 22107.0, 22120.0, 22144.0, 22163.0, 22159.0, 22164.0, 22165.0, 22168.0, 22167.0, 22170.0, 22184.0, 22181.0, 22170.0, 22170.0, 22172.0, 22158.0, 22164.0, 22172.0, 22166.0, 22148.0, 22154.0, 22162.0, 22164.0, 22166.0, 22177.0, 22160.0, 22136.0, 22152.0, 22137.0, 22104.0, 22072.0, 22082.0, 22082.0, 22091.0, 22105.0, 22111.0, 22108.0, 22118.0, 22141.0, 22151.0, 22151.0, 22144.0, 22149.0, 22145.0, 22142.0, 22134.0, 22135.0, 22109.0, 22114.0, 22107.0, 22122.0, 22100.0, 22110.0, 22111.0, 22108.0, 22092.0, 22093.0, 22097.0, 22124.0, 22115.0, 22125.0, 22129.0, 22132.0, 22126.0, 22133.0, 22124.0, 22137.0, 22130.0, 22134.0, 22152.0, 22155.0, 22153.0, 22155.0, 22154.0, 22153.0, 22157.0, 22159.0, 22143.0, 22135.0, 22141.0, 22146.0, 22137.0, 22130.0, 22126.0, 22116.0, 22118.0, 22129.0, 22126.0, 22151.0, 22153.0, 22151.0, 22143.0, 22140.0, 22138.0, 22117.0, 22114.0, 22115.0, 22121.0, 22121.0, 22146.0, 22140.0, 22153.0, 22163.0, 22151.0, 22157.0, 22161.0, 22159.0, 22150.0, 22169.0, 22171.0, 22168.0, 22194.0, 22174.0, 22170.0, 22167.0, 22154.0, 22137.0, 22124.0, 22118.0, 22115.0, 22100.0, 22105.0, 22132.0, 22124.0, 22116.0, 22135.0, 22134.0, 22110.0, 22108.0, 22111.0, 22114.0]
    },
    "slices": {}
  },
  "NumberOfVolumes": 192
}