{
  "AcquisitionMatrixPE": 104,
  "AcquisitionNumber": 1,
  "AcquisitionTime": "11:42:8.570000",
  "BandwidthPerPixelPhaseEncode": 16.578,
  "BaseResolution": 104,
  "BodyPartExamined": "BRAIN",
  "ConsistencyInfo": "N4_VE11C_LATEST_20160120",
  "ConversionSoftware": "dcm2niix",
  "ConversionSoftwareVersion": "v1.0.20190902",
  "DerivedVendorReportedEchoSpacing": 0.000580009,
  "DeviceSerialNumber": "166018",
  "DwellTime": 2.1e-06,
  "EchoTime": 0.037,
  "EchoTrainLength": 104,
  "EffectiveEchoSpacing": 0.000580009,
  "FlipAngle": 68,
  "ImageComments": "Unaliased_MB6_PE3_LB",
  "ImageOrientationPatientDICOM": [0.9986, 0.0527384, 0.00419263, -0.0509364, 0.979837, -0.193198],
  "ImageType": [
    "ORIGINAL",
    "PRIMARY",
    "M",
    "MB",
    "ND",
    "MOSAIC"
],
  "ImagingFrequency": 123.191,
  "InPlanePhaseEncodingDirectionDICOM": "COL",
  "InstitutionAddress": "Washington_Place_6_NYC_NYC_US_10003",
  "InstitutionName": "NYU_-_CBI",
  "InstitutionalDepartmentName": "Department",
  "MRAcquisitionType": "2D",
  "MagneticFieldStrength": 3,
  "Manufacturer": "Siemens",
  "ManufacturersModelName": "Prisma",
  "Modality": "MR",
  "MultibandAccelerationFactor": 6,
  "PartialFourier": 1,
  "PatientPosition": "HFS",
  "PercentPhaseFOV": 100,
  "PhaseEncodingDirection": "j",
  "PhaseEncodingSteps": 104,
  "PhaseResolution": 1,
  "PixelBandwidth": 2290,
  "ProcedureStepDescription": "Investigators_Winawer",
  "ProtocolName": "cmrr_mbepi_s6_2mm_66sl_PA_task-prf",
  "PulseSequenceDetails": "%CustomerSeq%_cmrr_mbep2d_bold",
  "ReceiveCoilActiveElements": "HC1-7",
  "ReceiveCoilName": "HeadNeck_64",
  "ReconMatrixPE": 104,
  "RepetitionTime": 1,
  "SAR": 0.0698491,
  "ScanOptions": "FS",
  "ScanningSequence": "EP",
  "SequenceName": "epfid2d1_104",
  "SequenceVariant": "SK_SS",
  "SeriesDescription": "cmrr_mbepi_s6_2mm_66sl_PA_task-prf",
  "SeriesNumber": 16,
  "ShimSetting": [240, -12627, -8425, 410, -10, -157, -141, 22],
  "SliceThickness": 2,
  "SliceTiming": [0, 0.535, 0.09, 0.6225, 0.1775, 0.7125, 0.2675, 0.8025, 0.355, 0.89, 0.445, 0, 0.535, 0.09, 0.6225, 0.1775, 0.7125, 0.2675, 0.8025, 0.355, 0.89, 0.445, 0, 0.535, 0.09, 0.6225, 0.1775, 0.7125, 0.2675, 0.8025, 0.355, 0.89, 0.445, 0, 0.535, 0.09, 0.6225, 0.1775, 0.7125, 0.2675, 0.8025, 0.355, 0.89, 0.445, 0, 0.535, 0.09, 0.6225, 0.1775, 0.7125, 0.2675, 0.8025, 0.355, 0.89, 0.445, 0, 0.535, 0.09, 0.6225, 0.1775, 0.7125, 0.2675, 0.8025, 0.355, 0.89, 0.445],
  "SoftwareVersions": "syngo_MR_E11",
  "SpacingBetweenSlices": 2,
  "StationName": "AWP166018",
  "TaskName": "prf",
  "TotalReadoutTime": 0.0597409,
  "TxRefAmp": 209.192,
  "WipMemBlock": "cb4d52e7-cf9d-4ec6-be6a-45185ffd5727||Sequence: R016 ve11c/master r/8780670; Nov 27 2017 15:05:12 by eja",
  "dcmmeta_affine": [
    [-1.9971991777420044, -0.10187274217605591, 0.02859412133693695, 115.3166732788086],
    [-0.10547684878110886, 1.9596734046936035, -0.3854280412197113, -71.6098861694336],
    [0.008385265246033669, 0.38639625906944275, 1.9623016119003296, -62.766014099121094],
    [0.0, 0.0, 0.0, 1.0]
],
  "dcmmeta_reorient_transform": [
    [0.0, -1.0, 0.0, 103.0],
    [1.0, 0.0, 0.0, 0.0],
    [0.0, 0.0, 1.0, 0.0],
    [0.0, 0.0, 0.0, 1.0]
],
  "dcmmeta_shape": [104, 104, 66, 192],
  "dcmmeta_slice_dim": 2,
  "dcmmeta_version": 0.6,
  "global": {
    "const": {
      "AccessionNumber": "jxw5tytt",
      "AcquisitionMatrix": [104, 0, 0, 104],
      "AngioFlag": "N",
      "BitsAllocated": 16,
      "BitsStored": 16,
      "BodyPartExamined": "BRAIN",
      "Columns": 936,
      "EchoNumbers": 1,
      "EchoTime": 37.0,
      "EchoTrainLength": 104,
      "FlipAngle": 68.0,
      "HighBit": 15,
      "ImageOrientationPatient": [0.99859955954261, 0.05273842537912, 0.00419263280496, -0.0509363694073, 0.97983670400195, -0.1931981360215],
      "ImagePositionPatient": [-893.27955590703, -989.33898252341, 134.28537934324],
      "ImageType": [
        "ORIGINAL",
        "PRIMARY",
        "M",
        "MB",
        "ND",
        "MOSAIC"
],
      "ImagedNucleus": "1H",
      "ImagingFrequency": 123.191116,
      "InPlanePhaseEncodingDirection": "COL",
      "MRAcquisitionType": "2D",
      "MagneticFieldStrength": 3.0,
      "Manufacturer": "SIEMENS",
      "ManufacturerModelName": "Prisma",
      "Modality": "MR",
      "NumberOfAverages": 1.0,
      "NumberOfPhaseEncodingSteps": 104,
      "PercentPhaseFieldOfView": 100.0,
      "PercentSampling": 100.0,
      "PerformedProcedureStepStartTime": "110536.164000",
      "PhotometricInterpretation": "MONOCHROME2",
      "PixelBandwidth": 2290.0,
      "PixelRepresentation": 0,
      "PixelSpacing": [2.0, 2.0],
      "ProtocolName": "cmrr_mbepi_s6_2mm_66sl_PA_task-prf",
      "RepetitionTime": 1000.0,
      "Rows": 936,
      "SAR": 0.06984905528673,
      "SamplesPerPixel": 1,
      "ScanOptions": "FS",
      "ScanningSequence": "EP",
      "SequenceName": "epfid2d1_104",
      "SequenceVariant": [
        "SK",
        "SS"
],
      "SeriesDescription": "cmrr_mbepi_s6_2mm_66sl_PA_task-prf",
      "SeriesNumber": 16,
      "SeriesTime": "114324.777000",
      "SliceLocation": -46.134008221898,
      "SliceThickness": 2.0,
      "SmallestImagePixelValue": 0,
      "SoftwareVersions": "syngo MR E11",
      "SpacingBetweenSlices": 2.000000018924,
      "SpecificCharacterSet": "ISO_IR 100",
      "StudyID": "1",
      "StudyTime": "110536.105000",
      "TransmitCoilName": "Body",
      "VariableFlipAngleFlag": "N",
      "WindowCenterWidthExplanation": "Algo1",
      "dBdt": 0.0},
    "slices": {}
  },
  "time": {
    "samples": {
      "AcquisitionNumber": [1, 2, 3, 4, 5, 6, 7, 8, 9, 10, 11, 12, 13, 14, 15, 16, 17, 18, 19, 20, 21, 22, 23, 24, 25, 26, 27, 28, 29, 30, 31, 32, 33, 34, 35, 36, 37, 38, 39, 40, 41, 42, 43, 44, 45, 46, 47, 48, 49, 50, 51, 52, 53, 54, 55, 56, 57, 58, 59, 60, 61, 62, 63, 64, 65, 66, 67, 68, 69, 70, 71, 72, 73, 74, 75, 76, 77, 78, 79, 80, 81, 82, 83, 84, 85, 86, 87, 88, 89, 90, 91, 92, 93, 94, 95, 96, 97, 98, 99, 100, 101, 102, 103, 104, 105, 106, 107, 108, 109, 110, 111, 112, 113, 114, 115, 116, 117, 118, 119, 120, 121, 122, 123, 124, 125, 126, 127, 128, 129, 130, 131, 132, 133, 134, 135, 136, 137, 138, 139, 140, 141, 142, 143, 144, 145, 146, 147, 148, 149, 150, 151, 152, 153, 154, 155, 156, 157, 158, 159, 160, 161, 162, 163, 164, 165, 166, 167, 168, 169, 170, 171, 172, 173, 174, 175, 176, 177, 178, 179, 180, 181, 182, 183, 184, 185, 186, 187, 188, 189, 190, 191, 192],
      "AcquisitionTime": ["114208.570000", "114209.570000", "114210.570000", "114211.570000", "114212.570000", "114213.570000", "114214.570000", "114215.570000", "114216.570000", "114217.570000", "114218.570000", "114219.570000", "114220.570000", "114221.570000", "114222.570000", "114223.570000", "114224.570000", "114225.570000", "114226.570000", "114227.570000", "114228.570000", "114229.570000", "114230.570000", "114231.570000", "114232.570000", "114233.570000", "114234.570000", "114235.570000", "114236.570000", "114237.570000", "114238.570000", "114239.570000", "114240.570000", "114241.570000", "114242.570000", "114243.570000", "114244.570000", "114245.570000", "114246.570000", "114247.570000", "114248.570000", "114249.570000", "114250.570000", "114251.570000", "114252.570000", "114253.570000", "114254.570000", "114255.570000", "114256.570000", "114257.570000", "114258.570000", "114259.570000", "114300.570000", "114301.570000", "114302.570000", "114303.570000", "114304.570000", "114305.570000", "114306.570000", "114307.570000", "114308.570000", "114309.570000", "114310.570000", "114311.570000", "114312.570000", "114313.570000", "114314.570000", "114315.570000", "114316.570000", "114317.570000", "114318.570000", "114319.570000", "114320.570000", "114321.570000", "114322.570000", "114323.570000", "114324.570000", "114325.570000", "114326.570000", "114327.570000", "114328.570000", "114329.570000", "114330.570000", "114331.570000", "114332.570000", "114333.570000", "114334.570000", "114335.570000", "114336.570000", "114337.570000", "114338.570000", "114339.570000", "114340.570000", "114341.570000", "114342.570000", "114343.570000", "114344.570000", "114345.570000", "114346.570000", "114347.570000", "114348.570000", "114349.570000", "114350.570000", "114351.570000", "114352.570000", "114353.570000", "114354.570000", "114355.570000", "114356.570000", "114357.570000", "114358.570000", "114359.570000", "114400.570000", "114401.570000", "114402.570000", "114403.570000", "114404.570000", "114405.570000", "114406.570000", "114407.570000", "114408.570000", "114409.570000", "114410.570000", "114411.570000", "114412.570000", "114413.570000", "114414.570000", "114415.570000", "114416.570000", "114417.570000", "114418.570000", "114419.570000", "114420.570000", "114421.570000", "114422.570000", "114423.570000", "114424.570000", "114425.570000", "114426.570000", "114427.570000", "114428.570000", "114429.570000", "114430.570000", "114431.570000", "114432.570000", "114433.570000", "114434.570000", "114435.570000", "114436.570000", "114437.570000", "114438.570000", "114439.570000", "114440.570000", "114441.570000", "114442.570000", "114443.570000", "114444.570000", "114445.570000", "114446.570000", "114447.570000", "114448.570000", "114449.570000", "114450.570000", "114451.570000", "114452.570000", "114453.570000", "114454.570000", "114455.570000", "114456.570000", "114457.570000", "114458.570000", "114459.570000", "114500.570000", "114501.570000", "114502.570000", "114503.570000", "114504.570000", "114505.570000", "114506.570000", "114507.570000", "114508.570000", "114509.570000", "114510.570000", "114511.570000", "114512.570000", "114513.570000", "114514.570000", "114515.570000", "114516.570000", "114517.570000", "114518.570000", "114519.570000"],
      "ContentTime": ["114324.780000", "114324.783000", "114324.786000", "114324.789000", "114324.793000", "114324.796000", "114324.799000", "114324.802000", "114324.805000", "114324.808000", "114324.811000", "114324.814000", "114324.817000", "114324.820000", "114324.823000", "114324.826000", "114324.829000", "114324.832000", "114324.835000", "114324.838000", "114324.847000", "114324.850000", "114324.853000", "114324.856000", "114324.859000", "114324.862000", "114324.865000", "114324.868000", "114324.871000", "114324.874000", "114324.878000", "114344.744000", "114344.747000", "114344.750000", "114344.753000", "114344.771000", "114344.789000", "114344.792000", "114344.795000", "114344.798000", "114344.801000", "114344.804000", "114344.807000", "114344.810000", "114344.813000", "114344.816000", "114344.819000", "114344.822000", "114344.825000", "114344.828000", "114344.831000", "114344.834000", "114344.837000", "114344.840000", "114344.843000", "114344.846000", "114344.849000", "114344.852000", "114344.863000", "114344.866000", "114404.744000", "114404.747000", "114404.750000", "114404.753000", "114404.756000", "114404.759000", "114404.765000", "114404.768000", "114404.771000", "114404.774000", "114404.777000", "114404.780000", "114404.783000", "114404.786000", "114404.789000", "114404.792000", "114404.795000", "114404.798000", "114404.801000", "114404.804000", "114404.807000", "114404.810000", "114404.813000", "114404.816000", "114404.819000", "114404.822000", "114404.825000", "114404.828000", "114424.743000", "114424.746000", "114424.749000", "114424.752000", "114424.755000", "114424.758000", "114424.770000", "114424.774000", "114424.777000", "114424.780000", "114424.783000", "114424.786000", "114424.789000", "114424.792000", "114424.795000", "114424.798000", "114424.801000", "114424.804000", "114424.807000", "114424.810000", "114424.813000", "114424.816000", "114424.819000", "114424.822000", "114424.825000", "114424.828000", "114424.831000", "114424.834000", "114444.743000", "114444.746000", "114444.749000", "114444.752000", "114444.755000", "114444.759000", "114444.762000", "114444.764000", "114444.768000", "114444.771000", "114444.774000", "114444.777000", "114444.780000", "114444.786000", "114444.789000", "114444.792000", "114444.795000", "114444.798000", "114444.801000", "114444.804000", "114444.807000", "114444.810000", "114444.813000", "114444.816000", "114444.819000", "114444.822000", "114444.825000", "114444.828000", "114504.743000", "114504.746000", "114504.749000", "114504.752000", "114504.755000", "114504.759000", "114504.762000", "114504.765000", "114504.768000", "114504.771000", "114504.774000", "114504.777000", "114504.780000", "114504.783000", "114504.786000", "114504.789000", "114504.792000", "114504.795000", "114504.798000", "114504.801000", "114504.810000", "114504.813000", "114504.816000", "114504.819000", "114504.822000", "114504.825000", "114504.828000", "114504.831000", "114521.065000", "114521.068000", "114521.071000", "114521.074000", "114521.077000", "114521.080000", "114521.083000", "114521.086000", "114521.089000", "114521.092000", "114521.095000", "114521.098000", "114521.101000", "114521.104000", "114521.107000", "114521.110000", "114521.113000", "114521.116000", "114521.119000", "114521.122000"],
      "InstanceCreationTime": ["114324.780000", "114324.783000", "114324.786000", "114324.789000", "114324.793000", "114324.796000", "114324.799000", "114324.802000", "114324.805000", "114324.808000", "114324.811000", "114324.814000", "114324.817000", "114324.820000", "114324.823000", "114324.826000", "114324.829000", "114324.832000", "114324.835000", "114324.838000", "114324.847000", "114324.850000", "114324.853000", "114324.856000", "114324.859000", "114324.862000", "114324.865000", "114324.868000", "114324.871000", "114324.874000", "114324.878000", "114344.744000", "114344.747000", "114344.750000", "114344.753000", "114344.771000", "114344.789000", "114344.792000", "114344.795000", "114344.798000", "114344.801000", "114344.804000", "114344.807000", "114344.810000", "114344.813000", "114344.816000", "114344.819000", "114344.822000", "114344.825000", "114344.828000", "114344.831000", "114344.834000", "114344.837000", "114344.840000", "114344.843000", "114344.846000", "114344.849000", "114344.852000", "114344.863000", "114344.866000", "114404.744000", "114404.747000", "114404.750000", "114404.753000", "114404.756000", "114404.759000", "114404.765000", "114404.768000", "114404.771000", "114404.774000", "114404.777000", "114404.780000", "114404.783000", "114404.786000", "114404.789000", "114404.792000", "114404.795000", "114404.798000", "114404.801000", "114404.804000", "114404.807000", "114404.810000", "114404.813000", "114404.816000", "114404.819000", "114404.822000", "114404.825000", "114404.828000", "114424.743000", "114424.746000", "114424.749000", "114424.752000", "114424.755000", "114424.758000", "114424.770000", "114424.774000", "114424.777000", "114424.780000", "114424.783000", "114424.786000", "114424.789000", "114424.792000", "114424.795000", "114424.798000", "114424.801000", "114424.804000", "114424.807000", "114424.810000", "114424.813000", "114424.816000", "114424.819000", "114424.822000", "114424.825000", "114424.828000", "114424.831000", "114424.834000", "114444.743000", "114444.746000", "114444.749000", "114444.752000", "114444.755000", "114444.759000", "114444.762000", "114444.764000", "114444.768000", "114444.771000", "114444.774000", "114444.777000", "114444.780000", "114444.786000", "114444.789000", "114444.792000", "114444.795000", "114444.798000", "114444.801000", "114444.804000", "114444.807000", "114444.810000", "114444.813000", "114444.816000", "114444.819000", "114444.822000", "114444.825000", "114444.828000", "114504.743000", "114504.746000", "114504.749000", "114504.752000", "114504.755000", "114504.759000", "114504.762000", "114504.765000", "114504.768000", "114504.771000", "114504.774000", "114504.777000", "114504.780000", "114504.783000", "114504.786000", "114504.789000", "114504.792000", "114504.795000", "114504.798000", "114504.801000", "114504.810000", "114504.813000", "114504.816000", "114504.819000", "114504.822000", "114504.825000", "114504.828000", "114504.831000", "114521.065000", "114521.068000", "114521.071000", "114521.074000", "114521.077000", "114521.080000", "114521.083000", "114521.086000", "114521.089000", "114521.092000", "114521.095000", "114521.098000", "114521.101000", "114521.104000", "114521.107000", "114521.110000", "114521.113000", "114521.116000", "114521.119000", "114521.122000"],
      "InstanceNumber": [1, 2, 3, 4, 5, 6, 7, 8, 9, 10, 11, 12, 13, 14, 15, 16, 17, 18, 19, 20, 21, 22, 23, 24, 25, 26, 27, 28, 29, 30, 31, 32, 33, 34, 35, 36, 37, 38, 39, 40, 41, 42, 43, 44, 45, 46, 47, 48, 49, 50, 51, 52, 53, 54, 55, 56, 57, 58, 59, 60, 61, 62, 63, 64, 65, 66, 67, 68, 69, 70, 71, 72, 73, 74, 75, 76, 77, 78, 79, 80, 81, 82, 83, 84, 85, 86, 87, 88, 89, 90, 91, 92, 93, 94, 95, 96, 97, 98, 99, 100, 101, 102, 103, 104, 105, 106, 107, 108, 109, 110, 111, 112, 113, 114, 115, 116, 117, 118, 119, 120, 121, 122, 123, 124, 125, 126, 127, 128, 129, 130, 131, 132, 133, 134, 135, 136, 137, 138, 139, 140, 141, 142, 143, 144, 145, 146, 147, 148, 149, 150, 151, 152, 153, 154, 155, 156, 157, 158, 159, 160, 161, 162, 163, 164, 165, 166, 167, 168, 169, 170, 171, 172, 173, 174, 175, 176, 177, 178, 179, 180, 181, 182, 183, 184, 185, 186, 187, 188, 189, 190, 191, 192],
      "LargestImagePixelValue": [41175, 40190, 39758, 39418, 38964, 38739, 38810, 38671, 38472, 38852, 38607, 38903, 38592, 38850, 39230, 38891, 38851, 39054, 38802, 39071, 38380, 38891, 38923, 38646, 38957, 38801, 38969, 38322, 38918, 38681, 39011, 39086, 39209, 39469, 39220, 38687, 38489, 38843, 38776, 38949, 38496, 39263, 39107, 38947, 39456, 38698, 39393, 39015, 39084, 38716, 38877, 39018, 38955, 38790, 38874, 38819, 38915, 39269, 38609, 38385, 39096, 38901, 38979, 39106, 38712, 38623, 38731, 38842, 38309, 38640, 38608, 38348, 38553, 38869, 38995, 38772, 38823, 39030, 39206, 38556, 38340, 39010, 38746, 38747, 38723, 38168, 38143, 38898, 39091, 39029, 39021, 39577, 39543, 38765, 38441, 38547, 38808, 38714, 38652, 38881, 38510, 39070, 39437, 39055, 39606, 39172, 38997, 38869, 39019, 39045, 38896, 39058, 38712, 38549, 38656, 38767, 38525, 38689, 38308, 38512, 38691, 38593, 38677, 39311, 39692, 38961, 38837, 38699, 39098, 38621, 38820, 38759, 38509, 38730, 38531, 38915, 39079, 39007, 39493, 39143, 38524, 38865, 38548, 39022, 39008, 38674, 38337, 38809, 38817, 38579, 38692, 38560, 38848, 38972, 38844, 39105, 38997, 39145, 38818, 38797, 39075, 38966, 38763, 38375, 39005, 38588, 39080, 39114, 38621, 38913, 38829, 38914, 39191, 39250, 39519, 39684, 39211, 38607, 38958, 38812, 39020, 39189, 38706, 39349, 38763, 38541, 38715, 39063, 38596, 38794, 39415, 39163],
      "WindowCenter": [10449.0, 10387.0, 10357.0, 10346.0, 10335.0, 10324.0, 10317.0, 10308.0, 10300.0, 10298.0, 10296.0, 10287.0, 10286.0, 10289.0, 10301.0, 10296.0, 10286.0, 10296.0, 10298.0, 10303.0, 10293.0, 10291.0, 10289.0, 10292.0, 10305.0, 10293.0, 10298.0, 10294.0, 10306.0, 10301.0, 10307.0, 10314.0, 10320.0, 10313.0, 10312.0, 10309.0, 10316.0, 10309.0, 10316.0, 10328.0, 10318.0, 10320.0, 10313.0, 10320.0, 10326.0, 10314.0, 10316.0, 10313.0, 10319.0, 10306.0, 10305.0, 10310.0, 10305.0, 10297.0, 10297.0, 10299.0, 10304.0, 10308.0, 10298.0, 10299.0, 10304.0, 10303.0, 10306.0, 10319.0, 10313.0, 10308.0, 10310.0, 10311.0, 10303.0, 10308.0, 10309.0, 10297.0, 10301.0, 10293.0, 10299.0, 10300.0, 10300.0, 10304.0, 10296.0, 10286.0, 10292.0, 10299.0, 10292.0, 10299.0, 10301.0, 10296.0, 10303.0, 10321.0, 10328.0, 10323.0, 10321.0, 10332.0, 10331.0, 10321.0, 10310.0, 10310.0, 10324.0, 10325.0, 10323.0, 10322.0, 10310.0, 10321.0, 10328.0, 10330.0, 10333.0, 10329.0, 10330.0, 10326.0, 10324.0, 10322.0, 10330.0, 10332.0, 10333.0, 10320.0, 10325.0, 10326.0, 10317.0, 10315.0, 10310.0, 10310.0, 10315.0, 10308.0, 10307.0, 10318.0, 10319.0, 10314.0, 10301.0, 10307.0, 10315.0, 10317.0, 10309.0, 10322.0, 10320.0, 10324.0, 10325.0, 10330.0, 10332.0, 10331.0, 10328.0, 10329.0, 10325.0, 10319.0, 10318.0, 10331.0, 10332.0, 10332.0, 10320.0, 10326.0, 10332.0, 10325.0, 10316.0, 10310.0, 10309.0, 10314.0, 10308.0, 10313.0, 10316.0, 10322.0, 10323.0, 10317.0, 10324.0, 10332.0, 10334.0, 10335.0, 10330.0, 10322.0, 10315.0, 10312.0, 10299.0, 10298.0, 10294.0, 10312.0, 10308.0, 10312.0, 10320.0, 10327.0, 10328.0, 10317.0, 10329.0, 10331.0, 10322.0, 10323.0, 10324.0, 10335.0, 10317.0, 10305.0, 10308.0, 10306.0, 10292.0, 10285.0, 10294.0, 10288.0],
      "WindowWidth": [22543.0, 22379.0, 22299.0, 22265.0, 22239.0, 22215.0, 22200.0, 22177.0, 22157.0, 22151.0, 22144.0, 22124.0, 22123.0, 22132.0, 22156.0, 22147.0, 22126.0, 22146.0, 22153.0, 22161.0, 22142.0, 22135.0, 22130.0, 22137.0, 22163.0, 22137.0, 22147.0, 22145.0, 22170.0, 22159.0, 22172.0, 22186.0, 22200.0, 22183.0, 22182.0, 22178.0, 22195.0, 22179.0, 22195.0, 22220.0, 22201.0, 22199.0, 22186.0, 22199.0, 22210.0, 22183.0, 22187.0, 22182.0, 22193.0, 22164.0, 22162.0, 22170.0, 22162.0, 22144.0, 22147.0, 22151.0, 22161.0, 22166.0, 22149.0, 22151.0, 22160.0, 22159.0, 22168.0, 22198.0, 22187.0, 22179.0, 22184.0, 22184.0, 22165.0, 22174.0, 22174.0, 22152.0, 22156.0, 22140.0, 22152.0, 22154.0, 22153.0, 22162.0, 22142.0, 22124.0, 22135.0, 22150.0, 22136.0, 22153.0, 22160.0, 22151.0, 22168.0, 22206.0, 22220.0, 22208.0, 22203.0, 22223.0, 22220.0, 22201.0, 22178.0, 22181.0, 22210.0, 22213.0, 22207.0, 22203.0, 22176.0, 22200.0, 22216.0, 22221.0, 22224.0, 22217.0, 22221.0, 22211.0, 22208.0, 22205.0, 22222.0, 22228.0, 22229.0, 22204.0, 22213.0, 22215.0, 22191.0, 22186.0, 22177.0, 22177.0, 22188.0, 22173.0, 22170.0, 22190.0, 22193.0, 22182.0, 22156.0, 22169.0, 22185.0, 22191.0, 22175.0, 22202.0, 22201.0, 22209.0, 22212.0, 22220.0, 22226.0, 22222.0, 22216.0, 22216.0, 22209.0, 22194.0, 22197.0, 22223.0, 22226.0, 22228.0, 22202.0, 22215.0, 22227.0, 22212.0, 22191.0, 22179.0, 22177.0, 22186.0, 22172.0, 22181.0, 22190.0, 22203.0, 22207.0, 22194.0, 22214.0, 22228.0, 22232.0, 22238.0, 22219.0, 22200.0, 22186.0, 22176.0, 22149.0, 22147.0, 22143.0, 22182.0, 22175.0, 22182.0, 22200.0, 22214.0, 22216.0, 22195.0, 22219.0, 22225.0, 22205.0, 22207.0, 22212.0, 22238.0, 22197.0, 22170.0, 22173.0, 22163.0, 22134.0, 22120.0, 22135.0, 22123.0]
    },
    "slices": {}
  },
  "NumberOfVolumes": 192
}