{
  "AcquisitionMatrixPE": 104,
  "AcquisitionNumber": 1,
  "AcquisitionTime": "16:44:19.465000",
  "BandwidthPerPixelPhaseEncode": 16.578,
  "BaseResolution": 104,
  "BodyPartExamined": "BRAIN",
  "ConsistencyInfo": "N4_VE11C_LATEST_20160120",
  "ConversionSoftware": "dcm2niix",
  "ConversionSoftwareVersion": "v1.0.20190902",
  "DerivedVendorReportedEchoSpacing": 0.000580009,
  "DeviceSerialNumber": "166018",
  "DwellTime": 2.1e-06,
  "EchoTime": 0.037,
  "EchoTrainLength": 104,
  "EffectiveEchoSpacing": 0.000580009,
  "FlipAngle": 68,
  "ImageComments": "Unaliased_MB6_PE3_LB",
  "ImageOrientationPatientDICOM": [0.998528, 0.00292711, 0.0541541, 0.0113284, 0.965258, -0.261055],
  "ImageType": [
    "ORIGINAL",
    "PRIMARY",
    "FMRI",
    "NONE",
    "MB",
    "ND",
    "MOSAIC"
],
  "ImagingFrequency": 123.191,
  "InPlanePhaseEncodingDirectionDICOM": "COL",
  "InstitutionAddress": "Washington_Place_6_NYC_NYC_US_10003",
  "InstitutionName": "NYU_-_CBI",
  "InstitutionalDepartmentName": "Department",
  "MRAcquisitionType": "2D",
  "MagneticFieldStrength": 3,
  "Manufacturer": "Siemens",
  "ManufacturersModelName": "Prisma",
  "Modality": "MR",
  "MultibandAccelerationFactor": 6,
  "PartialFourier": 1,
  "PatientPosition": "HFS",
  "PercentPhaseFOV": 100,
  "PhaseEncodingDirection": "j",
  "PhaseEncodingSteps": 104,
  "PhaseResolution": 1,
  "PixelBandwidth": 2290,
  "ProcedureStepDescription": "Investigators_Winawer",
  "ProtocolName": "cmrr_mbepi_s6_2mm_66sl_PA_task-prf",
  "PulseSequenceDetails": "%CustomerSeq%_cmrr_mbep2d_bold",
  "ReceiveCoilActiveElements": "HC1-7",
  "ReceiveCoilName": "HeadNeck_64",
  "ReconMatrixPE": 104,
  "RepetitionTime": 1,
  "SAR": 0.0751342,
  "ScanOptions": "FS",
  "ScanningSequence": "EP",
  "SequenceName": "epfid2d1_104",
  "SequenceVariant": "SK_SS",
  "SeriesDescription": "cmrr_mbepi_s6_2mm_66sl_PA_task-prf",
  "SeriesNumber": 20,
  "ShimSetting": [273, -12572, -8409, 330, -51, -69, -97, 26],
  "SliceThickness": 2,
  "SliceTiming": [0, 0.535, 0.09, 0.625, 0.18, 0.7125, 0.2675, 0.8025, 0.3575, 0.8925, 0.4475, 0, 0.535, 0.09, 0.625, 0.18, 0.7125, 0.2675, 0.8025, 0.3575, 0.8925, 0.4475, 0, 0.535, 0.09, 0.625, 0.18, 0.7125, 0.2675, 0.8025, 0.3575, 0.8925, 0.4475, 0, 0.535, 0.09, 0.625, 0.18, 0.7125, 0.2675, 0.8025, 0.3575, 0.8925, 0.4475, 0, 0.535, 0.09, 0.625, 0.18, 0.7125, 0.2675, 0.8025, 0.3575, 0.8925, 0.4475, 0, 0.535, 0.09, 0.625, 0.18, 0.7125, 0.2675, 0.8025, 0.3575, 0.8925, 0.4475],
  "SoftwareVersions": "syngo_MR_E11",
  "SpacingBetweenSlices": 2,
  "StationName": "AWP166018",
  "TaskName": "prf",
  "TotalReadoutTime": 0.0597409,
  "TxRefAmp": 230.408,
  "WipMemBlock": "18709dc5-b9c1-4c5f-8d98-c15ecd1181b8||Sequence: R016 ve11c/master r/8780670; Nov 27 2017 15:05:12 by eja",
  "dcmmeta_affine": [
    [-1.9970566034317017, 0.022656887769699097, 0.10607355833053589, 108.55162811279297],
    [-0.005854212213307619, 1.9305150508880615, -0.5225681066513062, -72.21367645263672],
    [0.10830818116664886, 0.5221095085144043, 1.9276076555252075, -64.4687728881836],
    [0.0, 0.0, 0.0, 1.0]
],
  "dcmmeta_reorient_transform": [
    [0.0, -1.0, 0.0, 103.0],
    [1.0, 0.0, 0.0, 0.0],
    [0.0, 0.0, 1.0, 0.0],
    [0.0, 0.0, 0.0, 1.0]
],
  "dcmmeta_shape": [104, 104, 66, 192],
  "dcmmeta_slice_dim": 2,
  "dcmmeta_version": 0.6,
  "global": {
    "const": {
      "AccessionNumber": "jur4Lwg3",
      "AcquisitionMatrix": [104, 0, 0, 104],
      "AngioFlag": "N",
      "BitsAllocated": 16,
      "BitsStored": 16,
      "BodyPartExamined": "BRAIN",
      "Columns": 936,
      "EchoNumbers": 1,
      "EchoTime": 37.0,
      "EchoTrainLength": 104,
      "FlipAngle": 68.0,
      "HighBit": 15,
      "ImageOrientationPatient": [0.99852830026932, 0.00292710608909, 0.05415409136158, 0.01132844359189, 0.9652575224754, -0.2610547484158],
      "ImagePositionPatient": [-951.08609740043, -932.15898372308, 161.44985133697],
      "ImageType": [
        "ORIGINAL",
        "PRIMARY",
        "FMRI",
        "NONE",
        "MB",
        "ND",
        "MOSAIC"
],
      "ImagedNucleus": "1H",
      "ImagingFrequency": 123.190992,
      "InPlanePhaseEncodingDirection": "COL",
      "MRAcquisitionType": "2D",
      "MagneticFieldStrength": 3.0,
      "Manufacturer": "SIEMENS",
      "ManufacturerModelName": "Prisma",
      "Modality": "MR",
      "NumberOfAverages": 1.0,
      "NumberOfPhaseEncodingSteps": 104,
      "PercentPhaseFieldOfView": 100.0,
      "PercentSampling": 100.0,
      "PerformedProcedureStepStartTime": "161503.964000",
      "PhotometricInterpretation": "MONOCHROME2",
      "PixelBandwidth": 2290.0,
      "PixelRepresentation": 0,
      "PixelSpacing": [2.0, 2.0],
      "ProtocolName": "cmrr_mbepi_s6_2mm_66sl_PA_task-prf",
      "RepetitionTime": 1000.0,
      "Rows": 936,
      "SAR": 0.0751342209519,
      "SamplesPerPixel": 1,
      "ScanOptions": "FS",
      "ScanningSequence": "EP",
      "SequenceName": "epfid2d1_104",
      "SequenceVariant": [
        "SK",
        "SS"
],
      "SeriesDescription": "cmrr_mbepi_s6_2mm_66sl_PA_task-prf",
      "SeriesNumber": 20,
      "SeriesTime": "164518.056000",
      "SliceLocation": -37.509738888644,
      "SliceThickness": 2.0,
      "SmallestImagePixelValue": 0,
      "SoftwareVersions": "syngo MR E11",
      "SpacingBetweenSlices": 2.0000000737764,
      "SpecificCharacterSet": "ISO_IR 100",
      "StudyID": "1",
      "StudyTime": "161503.852000",
      "TransmitCoilName": "Body",
      "VariableFlipAngleFlag": "N",
      "WindowCenterWidthExplanation": "Algo1",
      "dBdt": 0.0},
    "slices": {}
  },
  "time": {
    "samples": {
      "AcquisitionNumber": [1, 2, 3, 4, 5, 6, 7, 8, 9, 10, 11, 12, 13, 14, 15, 16, 17, 18, 19, 20, 21, 22, 23, 24, 25, 26, 27, 28, 29, 30, 31, 32, 33, 34, 35, 36, 37, 38, 39, 40, 41, 42, 43, 44, 45, 46, 47, 48, 49, 50, 51, 52, 53, 54, 55, 56, 57, 58, 59, 60, 61, 62, 63, 64, 65, 66, 67, 68, 69, 70, 71, 72, 73, 74, 75, 76, 77, 78, 79, 80, 81, 82, 83, 84, 85, 86, 87, 88, 89, 90, 91, 92, 93, 94, 95, 96, 97, 98, 99, 100, 101, 102, 103, 104, 105, 106, 107, 108, 109, 110, 111, 112, 113, 114, 115, 116, 117, 118, 119, 120, 121, 122, 123, 124, 125, 126, 127, 128, 129, 130, 131, 132, 133, 134, 135, 136, 137, 138, 139, 140, 141, 142, 143, 144, 145, 146, 147, 148, 149, 150, 151, 152, 153, 154, 155, 156, 157, 158, 159, 160, 161, 162, 163, 164, 165, 166, 167, 168, 169, 170, 171, 172, 173, 174, 175, 176, 177, 178, 179, 180, 181, 182, 183, 184, 185, 186, 187, 188, 189, 190, 191, 192],
      "AcquisitionTime": ["164419.465000", "164420.465000", "164421.465000", "164422.465000", "164423.465000", "164424.465000", "164425.465000", "164426.465000", "164427.465000", "164428.465000", "164429.465000", "164430.465000", "164431.465000", "164432.465000", "164433.465000", "164434.465000", "164435.465000", "164436.465000", "164437.465000", "164438.465000", "164439.465000", "164440.465000", "164441.465000", "164442.465000", "164443.465000", "164444.465000", "164445.465000", "164446.465000", "164447.465000", "164448.465000", "164449.465000", "164450.465000", "164451.465000", "164452.465000", "164453.465000", "164454.465000", "164455.465000", "164456.465000", "164457.465000", "164458.465000", "164459.465000", "164500.465000", "164501.465000", "164502.465000", "164503.465000", "164504.465000", "164505.465000", "164506.465000", "164507.465000", "164508.465000", "164509.465000", "164510.465000", "164511.465000", "164512.465000", "164513.465000", "164514.465000", "164515.465000", "164516.465000", "164517.465000", "164518.465000", "164519.465000", "164520.465000", "164521.465000", "164522.465000", "164523.465000", "164524.465000", "164525.465000", "164526.465000", "164527.465000", "164528.465000", "164529.465000", "164530.465000", "164531.465000", "164532.465000", "164533.465000", "164534.465000", "164535.465000", "164536.465000", "164537.465000", "164538.465000", "164539.465000", "164540.465000", "164541.465000", "164542.465000", "164543.465000", "164544.465000", "164545.465000", "164546.465000", "164547.465000", "164548.465000", "164549.465000", "164550.465000", "164551.465000", "164552.465000", "164553.465000", "164554.465000", "164555.465000", "164556.465000", "164557.465000", "164558.465000", "164559.465000", "164600.465000", "164601.465000", "164602.465000", "164603.465000", "164604.465000", "164605.465000", "164606.465000", "164607.465000", "164608.465000", "164609.465000", "164610.465000", "164611.465000", "164612.465000", "164613.465000", "164614.465000", "164615.465000", "164616.465000", "164617.465000", "164618.465000", "164619.465000", "164620.465000", "164621.465000", "164622.465000", "164623.465000", "164624.465000", "164625.465000", "164626.465000", "164627.465000", "164628.465000", "164629.465000", "164630.465000", "164631.465000", "164632.465000", "164633.465000", "164634.465000", "164635.465000", "164636.465000", "164637.465000", "164638.465000", "164639.465000", "164640.465000", "164641.465000", "164642.465000", "164643.465000", "164644.465000", "164645.465000", "164646.465000", "164647.465000", "164648.465000", "164649.465000", "164650.465000", "164651.465000", "164652.465000", "164653.465000", "164654.465000", "164655.465000", "164656.465000", "164657.465000", "164658.465000", "164659.465000", "164700.465000", "164701.465000", "164702.465000", "164703.465000", "164704.465000", "164705.465000", "164706.465000", "164707.465000", "164708.465000", "164709.465000", "164710.465000", "164711.465000", "164712.465000", "164713.465000", "164714.465000", "164715.465000", "164716.465000", "164717.465000", "164718.465000", "164719.465000", "164720.465000", "164721.465000", "164722.465000", "164723.465000", "164724.465000", "164725.465000", "164726.465000", "164727.465000", "164728.465000", "164729.465000", "164730.465000"],
      "ContentTime": ["164518.058000", "164518.682000", "164519.440000", "164520.084000", "164520.874000", "164521.528000", "164522.344000", "164523.009000", "164523.777000", "164524.486000", "164525.149000", "164525.890000", "164526.661000", "164527.325000", "164528.052000", "164528.734000", "164529.577000", "164530.235000", "164530.966000", "164531.640000", "164532.345000", "164533.028000", "164533.744000", "164534.547000", "164535.215000", "164535.905000", "164536.624000", "164537.320000", "164538.022000", "164538.724000", "164539.391000", "164540.162000", "164540.851000", "164541.541000", "164542.243000", "164542.962000", "164543.680000", "164544.486000", "164545.077000", "164545.781000", "164546.539000", "164547.150000", "164547.968000", "164548.616000", "164549.295000", "164550.026000", "164550.717000", "164551.451000", "164552.090000", "164552.850000", "164553.557000", "164554.287000", "164554.954000", "164555.707000", "164556.409000", "164557.117000", "164557.795000", "164558.531000", "164559.199000", "164559.934000", "164600.607000", "164601.355000", "164602.086000", "164602.759000", "164603.541000", "164604.169000", "164604.950000", "164605.595000", "164606.342000", "164607.015000", "164607.757000", "164608.499000", "164609.195000", "164609.908000", "164610.604000", "164611.295000", "164612.007000", "164612.686000", "164613.454000", "164614.124000", "164614.809000", "164615.567000", "164616.218000", "164616.976000", "164617.638000", "164618.386000", "164619.071000", "164619.842000", "164620.537000", "164621.222000", "164621.929000", "164622.620000", "164623.345000", "164624.035000", "164624.834000", "164625.621000", "164626.254000", "164626.906000", "164627.641000", "164628.297000", "164629.039000", "164629.740000", "164630.488000", "164631.155000", "164631.823000", "164632.576000", "164633.238000", "164633.951000", "164634.716000", "164635.361000", "164636.130000", "164636.793000", "164637.620000", "164638.282000", "164639.024000", "164639.709000", "164640.462000", "164641.121000", "164641.820000", "164642.544000", "164643.207000", "164643.942000", "164644.610000", "164645.369000", "164646.025000", "164646.795000", "164647.520000", "164648.193000", "164648.884000", "164649.591000", "164650.281000", "164650.983000", "164651.708000", "164652.393000", "164653.243000", "164653.871000", "164654.619000", "164655.368000", "164656.028000", "164656.719000", "164657.530000", "164658.145000", "164658.881000", "164659.554000", "164700.314000", "164700.981000", "164701.683000", "164702.412000", "164703.069000", "164703.800000", "164704.536000", "164705.192000", "164705.854000", "164706.584000", "164707.383000", "164707.971000", "164708.695000", "164709.449000", "164710.077000", "164710.818000", "164711.538000", "164712.217000", "164712.987000", "164713.627000", "164714.458000", "164715.127000", "164715.875000", "164716.611000", "164717.273000", "164717.998000", "164718.705000", "164719.395000", "164720.120000", "164720.794000", "164721.530000", "164722.200000", "164722.947000", "164723.643000", "164724.350000", "164725.035000", "164725.760000", "164726.479000", "164727.135000", "164727.814000", "164728.539000", "164729.316000", "164729.893000", "164730.612000", "164731.274000", "164731.993000", "164732.638000", "164733.385000"],
      "InstanceCreationTime": ["164518.058000", "164518.682000", "164519.440000", "164520.084000", "164520.874000", "164521.528000", "164522.344000", "164523.009000", "164523.777000", "164524.486000", "164525.149000", "164525.890000", "164526.661000", "164527.325000", "164528.052000", "164528.734000", "164529.577000", "164530.235000", "164530.966000", "164531.640000", "164532.345000", "164533.028000", "164533.744000", "164534.547000", "164535.215000", "164535.905000", "164536.624000", "164537.320000", "164538.022000", "164538.724000", "164539.391000", "164540.162000", "164540.851000", "164541.541000", "164542.243000", "164542.962000", "164543.680000", "164544.486000", "164545.077000", "164545.781000", "164546.539000", "164547.150000", "164547.968000", "164548.616000", "164549.295000", "164550.026000", "164550.717000", "164551.451000", "164552.090000", "164552.850000", "164553.557000", "164554.287000", "164554.954000", "164555.707000", "164556.409000", "164557.117000", "164557.795000", "164558.531000", "164559.199000", "164559.934000", "164600.607000", "164601.355000", "164602.086000", "164602.759000", "164603.541000", "164604.169000", "164604.950000", "164605.595000", "164606.342000", "164607.015000", "164607.757000", "164608.499000", "164609.195000", "164609.908000", "164610.604000", "164611.295000", "164612.007000", "164612.686000", "164613.454000", "164614.124000", "164614.809000", "164615.567000", "164616.218000", "164616.976000", "164617.638000", "164618.386000", "164619.071000", "164619.842000", "164620.537000", "164621.222000", "164621.929000", "164622.620000", "164623.345000", "164624.035000", "164624.834000", "164625.621000", "164626.254000", "164626.906000", "164627.641000", "164628.297000", "164629.039000", "164629.740000", "164630.488000", "164631.155000", "164631.823000", "164632.576000", "164633.238000", "164633.951000", "164634.716000", "164635.361000", "164636.130000", "164636.793000", "164637.620000", "164638.282000", "164639.024000", "164639.709000", "164640.462000", "164641.121000", "164641.820000", "164642.544000", "164643.207000", "164643.942000", "164644.610000", "164645.369000", "164646.025000", "164646.795000", "164647.520000", "164648.193000", "164648.884000", "164649.591000", "164650.281000", "164650.983000", "164651.708000", "164652.393000", "164653.243000", "164653.871000", "164654.619000", "164655.368000", "164656.028000", "164656.719000", "164657.530000", "164658.145000", "164658.881000", "164659.554000", "164700.314000", "164700.981000", "164701.683000", "164702.412000", "164703.069000", "164703.800000", "164704.536000", "164705.192000", "164705.854000", "164706.584000", "164707.383000", "164707.971000", "164708.695000", "164709.449000", "164710.077000", "164710.818000", "164711.538000", "164712.217000", "164712.987000", "164713.627000", "164714.458000", "164715.127000", "164715.875000", "164716.611000", "164717.273000", "164717.998000", "164718.705000", "164719.395000", "164720.120000", "164720.794000", "164721.530000", "164722.200000", "164722.947000", "164723.643000", "164724.350000", "164725.035000", "164725.760000", "164726.479000", "164727.135000", "164727.814000", "164728.539000", "164729.316000", "164729.893000", "164730.612000", "164731.274000", "164731.993000", "164732.638000", "164733.385000"],
      "InstanceNumber": [1, 2, 3, 4, 5, 6, 7, 8, 9, 10, 11, 12, 13, 14, 15, 16, 17, 18, 19, 20, 21, 22, 23, 24, 25, 26, 27, 28, 29, 30, 31, 32, 33, 34, 35, 36, 37, 38, 39, 40, 41, 42, 43, 44, 45, 46, 47, 48, 49, 50, 51, 52, 53, 54, 55, 56, 57, 58, 59, 60, 61, 62, 63, 64, 65, 66, 67, 68, 69, 70, 71, 72, 73, 74, 75, 76, 77, 78, 79, 80, 81, 82, 83, 84, 85, 86, 87, 88, 89, 90, 91, 92, 93, 94, 95, 96, 97, 98, 99, 100, 101, 102, 103, 104, 105, 106, 107, 108, 109, 110, 111, 112, 113, 114, 115, 116, 117, 118, 119, 120, 121, 122, 123, 124, 125, 126, 127, 128, 129, 130, 131, 132, 133, 134, 135, 136, 137, 138, 139, 140, 141, 142, 143, 144, 145, 146, 147, 148, 149, 150, 151, 152, 153, 154, 155, 156, 157, 158, 159, 160, 161, 162, 163, 164, 165, 166, 167, 168, 169, 170, 171, 172, 173, 174, 175, 176, 177, 178, 179, 180, 181, 182, 183, 184, 185, 186, 187, 188, 189, 190, 191, 192],
      "LargestImagePixelValue": [41093, 40143, 39387, 39142, 38641, 38953, 38730, 38242, 38249, 38397, 38579, 38060, 38525, 38491, 38016, 38849, 38273, 38687, 38148, 38367, 38766, 38763, 38857, 38361, 38962, 38225, 38399, 38787, 38842, 38512, 38981, 38775, 38609, 38658, 38968, 38676, 38958, 38714, 38800, 38670, 38566, 38678, 38612, 38009, 38518, 37967, 38769, 39166, 39187, 38312, 38557, 38176, 38545, 38483, 38908, 39292, 39057, 38946, 38874, 38729, 38697, 38753, 39205, 39048, 38857, 38958, 38855, 38765, 38768, 38806, 38681, 39097, 39149, 38989, 39147, 38857, 38871, 38727, 39001, 38751, 38834, 38802, 39259, 39125, 38673, 38980, 38607, 39153, 39068, 38533, 38395, 38414, 38848, 38579, 38276, 38423, 38669, 38995, 39148, 38955, 39158, 38899, 38860, 39055, 39249, 38934, 39535, 39082, 39104, 39437, 38980, 39264, 38842, 38878, 38599, 38967, 39124, 39282, 39368, 39313, 39153, 39522, 39478, 39013, 38957, 38926, 39518, 39536, 39140, 39034, 39699, 38924, 38996, 39383, 39210, 39162, 39331, 39616, 39568, 39354, 39737, 39942, 39488, 40179, 39712, 39227, 39622, 39631, 39101, 38913, 39633, 39432, 39847, 39871, 39555, 39811, 39778, 39542, 39619, 39597, 39446, 39367, 39277, 39240, 39718, 39229, 39497, 39739, 39988, 39811, 39925, 39565, 39611, 39812, 38789, 39664, 39928, 39494, 39348, 39370, 39832, 39899, 39684, 39639, 40201, 39588, 39372, 39288, 39575, 39858, 39972, 39732],
      "WindowCenter": [10341.0, 10335.0, 10349.0, 10360.0, 10357.0, 10327.0, 10335.0, 10345.0, 10357.0, 10324.0, 10327.0, 10335.0, 10346.0, 10357.0, 10328.0, 10315.0, 10330.0, 10345.0, 10339.0, 10351.0, 10324.0, 10303.0, 10311.0, 10320.0, 10327.0, 10326.0, 10331.0, 10316.0, 10288.0, 10303.0, 10332.0, 10336.0, 10334.0, 10294.0, 10312.0, 10317.0, 10324.0, 10330.0, 10301.0, 10294.0, 10310.0, 10326.0, 10345.0, 10320.0, 10310.0, 10321.0, 10329.0, 10298.0, 10303.0, 10317.0, 10302.0, 10287.0, 10327.0, 10352.0, 10339.0, 10300.0, 10301.0, 10314.0, 10316.0, 10320.0, 10333.0, 10331.0, 10299.0, 10305.0, 10325.0, 10334.0, 10339.0, 10304.0, 10301.0, 10324.0, 10334.0, 10344.0, 10318.0, 10301.0, 10315.0, 10320.0, 10327.0, 10304.0, 10290.0, 10305.0, 10324.0, 10327.0, 10298.0, 10313.0, 10324.0, 10326.0, 10303.0, 10301.0, 10325.0, 10331.0, 10329.0, 10301.0, 10316.0, 10341.0, 10346.0, 10351.0, 10314.0, 10316.0, 10332.0, 10341.0, 10318.0, 10300.0, 10317.0, 10333.0, 10347.0, 10343.0, 10312.0, 10321.0, 10340.0, 10357.0, 10369.0, 10334.0, 10320.0, 10335.0, 10346.0, 10352.0, 10334.0, 10304.0, 10320.0, 10337.0, 10343.0, 10357.0, 10309.0, 10316.0, 10343.0, 10353.0, 10361.0, 10377.0, 10335.0, 10327.0, 10346.0, 10345.0, 10356.0, 10364.0, 10371.0, 10374.0, 10372.0, 10370.0, 10367.0, 10337.0, 10308.0, 10328.0, 10346.0, 10370.0, 10380.0, 10375.0, 10333.0, 10352.0, 10359.0, 10367.0, 10369.0, 10325.0, 10330.0, 10355.0, 10361.0, 10362.0, 10327.0, 10315.0, 10340.0, 10359.0, 10345.0, 10326.0, 10342.0, 10352.0, 10367.0, 10319.0, 10322.0, 10344.0, 10346.0, 10349.0, 10328.0, 10305.0, 10322.0, 10345.0, 10345.0, 10338.0, 10311.0, 10315.0, 10330.0, 10334.0, 10334.0, 10298.0, 10312.0, 10328.0, 10330.0, 10330.0, 10321.0, 10284.0, 10288.0, 10309.0, 10335.0, 10341.0],
      "WindowWidth": [22096.0, 22089.0, 22123.0, 22152.0, 22142.0, 22066.0, 22090.0, 22116.0, 22144.0, 22066.0, 22071.0, 22094.0, 22121.0, 22147.0, 22079.0, 22049.0, 22086.0, 22122.0, 22114.0, 22133.0, 22069.0, 22017.0, 22037.0, 22062.0, 22077.0, 22080.0, 22091.0, 22051.0, 21984.0, 22024.0, 22084.0, 22093.0, 22085.0, 21992.0, 22033.0, 22051.0, 22065.0, 22085.0, 22013.0, 22000.0, 22041.0, 22076.0, 22119.0, 22060.0, 22036.0, 22065.0, 22082.0, 21999.0, 22017.0, 22053.0, 22015.0, 21986.0, 22080.0, 22137.0, 22105.0, 22011.0, 22017.0, 22045.0, 22049.0, 22059.0, 22086.0, 22082.0, 22003.0, 22022.0, 22070.0, 22094.0, 22105.0, 22016.0, 22015.0, 22066.0, 22091.0, 22116.0, 22047.0, 22010.0, 22049.0, 22062.0, 22079.0, 22021.0, 21984.0, 22023.0, 22066.0, 22072.0, 22002.0, 22038.0, 22069.0, 22073.0, 22018.0, 22017.0, 22074.0, 22090.0, 22078.0, 22010.0, 22048.0, 22106.0, 22122.0, 22131.0, 22042.0, 22048.0, 22086.0, 22106.0, 22050.0, 22009.0, 22052.0, 22086.0, 22115.0, 22105.0, 22025.0, 22056.0, 22102.0, 22142.0, 22171.0, 22082.0, 22058.0, 22094.0, 22116.0, 22128.0, 22081.0, 22008.0, 22049.0, 22089.0, 22107.0, 22134.0, 22022.0, 22046.0, 22110.0, 22135.0, 22153.0, 22184.0, 22085.0, 22071.0, 22114.0, 22116.0, 22143.0, 22162.0, 22178.0, 22185.0, 22179.0, 22171.0, 22161.0, 22090.0, 22022.0, 22073.0, 22115.0, 22170.0, 22193.0, 22178.0, 22082.0, 22125.0, 22146.0, 22162.0, 22164.0, 22057.0, 22075.0, 22136.0, 22150.0, 22152.0, 22062.0, 22042.0, 22100.0, 22148.0, 22116.0, 22068.0, 22105.0, 22130.0, 22158.0, 22044.0, 22056.0, 22106.0, 22109.0, 22119.0, 22060.0, 22012.0, 22057.0, 22108.0, 22112.0, 22088.0, 22023.0, 22041.0, 22076.0, 22087.0, 22086.0, 22000.0, 22037.0, 22075.0, 22076.0, 22074.0, 22060.0, 21967.0, 21978.0, 22027.0, 22087.0, 22107.0]
    },
    "slices": {}
  },
  "NumberOfVolumes": 192
}