{
  "aor": 0.0016328125,
  "aqi": 0.008680457083333334,
  "bids_meta": {
    "AcquisitionMatrixPE": 104,
    "AcquisitionNumber": 1,
    "AcquisitionTime": "09:34:21.507500",
    "BandwidthPerPixelPhaseEncode": 16.578,
    "BaseResolution": 104,
    "BodyPartExamined": "BRAIN",
    "CogAtlasID": "TODO",
    "ConsistencyInfo": "N4_VE11C_LATEST_20160120",
    "ConversionSoftware": "dcm2niix",
    "ConversionSoftwareVersion": "v1.0.20190902",
    "DerivedVendorReportedEchoSpacing": 0.000580009,
    "DeviceSerialNumber": "166018",
    "DwellTime": 2.1e-06,
    "EchoTime": 0.037,
    "EchoTrainLength": 104,
    "EffectiveEchoSpacing": 0.000580009,
    "FlipAngle": 68,
    "ImageComments": "Unaliased_MB6_PE3_LB",
    "ImageOrientationPatientDICOM": [
      0.996205,
      0.0856026,
      0.0157656,
      -0.0740308,
      0.928536,
      -0.363786
    ],
    "ImageType": [
      "ORIGINAL",
      "PRIMARY",
      "M",
      "MB",
      "ND",
      "MOSAIC"
    ],
    "ImagingFrequency": 123.191,
    "InPlanePhaseEncodingDirectionDICOM": "COL",
    "InstitutionAddress": "Washington_Place_6_NYC_NYC_US_10003",
    "InstitutionName": "NYU_-_CBI",
    "InstitutionalDepartmentName": "Department",
    "MRAcquisitionType": "2D",
    "MagneticFieldStrength": 3,
    "Manufacturer": "Siemens",
    "ManufacturersModelName": "Prisma",
    "Modality": "MR",
    "MultibandAccelerationFactor": 6,
    "NumberOfVolumes": 192,
    "PartialFourier": 1,
    "PatientPosition": "HFS",
    "PercentPhaseFOV": 100,
    "PhaseEncodingDirection": "j",
    "PhaseEncodingSteps": 104,
    "PhaseResolution": 1,
    "PixelBandwidth": 2290,
    "ProcedureStepDescription": "Investigators_Winawer",
    "ProtocolName": "cmrr_mbepi_s6_2mm_66sl_PA_task-prf",
    "PulseSequenceDetails": "%CustomerSeq%_cmrr_mbep2d_bold",
    "ReceiveCoilActiveElements": "HC1-7",
    "ReceiveCoilName": "HeadNeck_64",
    "ReconMatrixPE": 104,
    "RepetitionTime": 1,
    "SAR": 0.068692,
    "ScanOptions": "FS",
    "ScanningSequence": "EP",
    "SequenceName": "epfid2d1_104",
    "SequenceVariant": "SK_SS",
    "SeriesDescription": "cmrr_mbepi_s6_2mm_66sl_PA_task-prf",
    "SeriesNumber": 18,
    "ShimSetting": [
      253,
      -12562,
      -8457,
      379,
      -116,
      32,
      -112,
      52
    ],
    "SliceThickness": 2,
    "SliceTiming": [
      0,
      0.535,
      0.09,
      0.625,
      0.1775,
      0.7125,
      0.2675,
      0.8025,
      0.3575,
      0.89,
      0.445,
      0,
      0.535,
      0.09,
      0.625,
      0.1775,
      0.7125,
      0.2675,
      0.8025,
      0.3575,
      0.89,
      0.445,
      0,
      0.535,
      0.09,
      0.625,
      0.1775,
      0.7125,
      0.2675,
      0.8025,
      0.3575,
      0.89,
      0.445,
      0,
      0.535,
      0.09,
      0.625,
      0.1775,
      0.7125,
      0.2675,
      0.8025,
      0.3575,
      0.89,
      0.445,
      0,
      0.535,
      0.09,
      0.625,
      0.1775,
      0.7125,
      0.2675,
      0.8025,
      0.3575,
      0.89,
      0.445,
      0,
      0.535,
      0.09,
      0.625,
      0.1775,
      0.7125,
      0.2675,
      0.8025,
      0.3575,
      0.89,
      0.445
    ],
    "SoftwareVersions": "syngo_MR_E11",
    "SpacingBetweenSlices": 2,
    "StationName": "AWP166018",
    "TaskName": "prf",
    "TotalReadoutTime": 0.0597409,
    "TxRefAmp": 221.385,
    "WipMemBlock": "7378edc6-d062-4cc0-82ac-462082a2613c||Sequence: R016 ve11c/master r/8780670; Nov 27 2017 15:05:12 by eja",
    "acq_id": "PA",
    "dataset": "unknown",
    "dcmmeta_affine": [
      [
        -1.9924092292785645,
        -0.14806151390075684,
        0.09155989438295364,
        115.22147369384766
      ],
      [
        -0.17120517790317535,
        1.857072114944458,
        -0.7224763035774231,
        -54.160823822021484
      ],
      [
        0.0315311923623085,
        0.727571964263916,
        1.8626983165740967,
        -87.12887573242188
      ],
      [
        0.0,
        0.0,
        0.0,
        1.0
      ]
    ],
    "dcmmeta_reorient_transform": [
      [
        0.0,
        -1.0,
        0.0,
        103.0
      ],
      [
        1.0,
        0.0,
        0.0,
        0.0
      ],
      [
        0.0,
        0.0,
        1.0,
        0.0
      ],
      [
        0.0,
        0.0,
        0.0,
        1.0
      ]
    ],
    "dcmmeta_shape": [
      104,
      104,
      66,
      192
    ],
    "dcmmeta_slice_dim": 2,
    "dcmmeta_version": 0.6,
    "global": {
      "const": {
        "AccessionNumber": "JU9RZJEV",
        "AcquisitionMatrix": [
          104,
          0,
          0,
          104
        ],
        "AngioFlag": "N",
        "BitsAllocated": 16,
        "BitsStored": 16,
        "BodyPartExamined": "BRAIN",
        "Columns": 936,
        "EchoNumbers": 1,
        "EchoTime": 37.0,
        "EchoTrainLength": 104,
        "FlipAngle": 68.0,
        "HighBit": 15,
        "ImageOrientationPatient": [
          0.99620461906818,
          0.08560258718834,
          0.01576559589405,
          -0.0740307604653,
          0.92853605273638,
          -0.3637859882866
        ],
        "ImagePositionPatient": [
          -867.21978845316,
          -980.88095324883,
          277.36400393594
        ],
        "ImageType": [
          "ORIGINAL",
          "PRIMARY",
          "M",
          "MB",
          "ND",
          "MOSAIC"
        ],
        "ImagedNucleus": "1H",
        "ImagingFrequency": 123.191016,
        "InPlanePhaseEncodingDirection": "COL",
        "MRAcquisitionType": "2D",
        "MagneticFieldStrength": 3.0,
        "Manufacturer": "SIEMENS",
        "ManufacturerModelName": "Prisma",
        "Modality": "MR",
        "NumberOfAverages": 1.0,
        "NumberOfPhaseEncodingSteps": 104,
        "PercentPhaseFieldOfView": 100.0,
        "PercentSampling": 100.0,
        "PerformedProcedureStepStartTime": "085101.370000",
        "PhotometricInterpretation": "MONOCHROME2",
        "PixelBandwidth": 2290.0,
        "PixelRepresentation": 0,
        "PixelSpacing": [
          2.0,
          2.0
        ],
        "ProtocolName": "cmrr_mbepi_s6_2mm_66sl_PA_task-prf",
        "RepetitionTime": 1000.0,
        "Rows": 936,
        "SAR": 0.06869203088308,
        "SamplesPerPixel": 1,
        "ScanOptions": "FS",
        "ScanningSequence": "EP",
        "SequenceName": "epfid2d1_104",
        "SequenceVariant": [
          "SK",
          "SS"
        ],
        "SeriesDescription": "cmrr_mbepi_s6_2mm_66sl_PA_task-prf",
        "SeriesNumber": 18,
        "SeriesTime": "093517.115000",
        "SliceLocation": -56.307615263165,
        "SliceThickness": 2.0,
        "SmallestImagePixelValue": 0,
        "SoftwareVersions": "syngo MR E11",
        "SpacingBetweenSlices": 2.0000000386761,
        "SpecificCharacterSet": "ISO_IR 100",
        "StudyID": "1",
        "StudyTime": "085101.165000",
        "TransmitCoilName": "Body",
        "VariableFlipAngleFlag": "N",
        "WindowCenterWidthExplanation": "Algo1",
        "dBdt": 0.0
      },
      "slices": {}
    },
    "modality": "bold",
    "run_id": 6,
    "session_id": "nyu3t01",
    "subject_id": "wlsubj076",
    "task_id": "prf",
    "time": {
      "samples": {
        "AcquisitionNumber": [
          1,
          2,
          3,
          4,
          5,
          6,
          7,
          8,
          9,
          10,
          11,
          12,
          13,
          14,
          15,
          16,
          17,
          18,
          19,
          20,
          21,
          22,
          23,
          24,
          25,
          26,
          27,
          28,
          29,
          30,
          31,
          32,
          33,
          34,
          35,
          36,
          37,
          38,
          39,
          40,
          41,
          42,
          43,
          44,
          45,
          46,
          47,
          48,
          49,
          50,
          51,
          52,
          53,
          54,
          55,
          56,
          57,
          58,
          59,
          60,
          61,
          62,
          63,
          64,
          65,
          66,
          67,
          68,
          69,
          70,
          71,
          72,
          73,
          74,
          75,
          76,
          77,
          78,
          79,
          80,
          81,
          82,
          83,
          84,
          85,
          86,
          87,
          88,
          89,
          90,
          91,
          92,
          93,
          94,
          95,
          96,
          97,
          98,
          99,
          100,
          101,
          102,
          103,
          104,
          105,
          106,
          107,
          108,
          109,
          110,
          111,
          112,
          113,
          114,
          115,
          116,
          117,
          118,
          119,
          120,
          121,
          122,
          123,
          124,
          125,
          126,
          127,
          128,
          129,
          130,
          131,
          132,
          133,
          134,
          135,
          136,
          137,
          138,
          139,
          140,
          141,
          142,
          143,
          144,
          145,
          146,
          147,
          148,
          149,
          150,
          151,
          152,
          153,
          154,
          155,
          156,
          157,
          158,
          159,
          160,
          161,
          162,
          163,
          164,
          165,
          166,
          167,
          168,
          169,
          170,
          171,
          172,
          173,
          174,
          175,
          176,
          177,
          178,
          179,
          180,
          181,
          182,
          183,
          184,
          185,
          186,
          187,
          188,
          189,
          190,
          191,
          192
        ],
        "AcquisitionTime": [
          "093421.507500",
          "093422.507500",
          "093423.507500",
          "093424.507500",
          "093425.507500",
          "093426.507500",
          "093427.507500",
          "093428.507500",
          "093429.507500",
          "093430.507500",
          "093431.507500",
          "093432.507500",
          "093433.507500",
          "093434.507500",
          "093435.507500",
          "093436.507500",
          "093437.507500",
          "093438.507500",
          "093439.507500",
          "093440.507500",
          "093441.507500",
          "093442.507500",
          "093443.507500",
          "093444.507500",
          "093445.507500",
          "093446.507500",
          "093447.507500",
          "093448.507500",
          "093449.507500",
          "093450.507500",
          "093451.507500",
          "093452.507500",
          "093453.507500",
          "093454.507500",
          "093455.507500",
          "093456.507500",
          "093457.507500",
          "093458.507500",
          "093459.507500",
          "093500.507500",
          "093501.507500",
          "093502.507500",
          "093503.507500",
          "093504.507500",
          "093505.507500",
          "093506.507500",
          "093507.507500",
          "093508.507500",
          "093509.507500",
          "093510.507500",
          "093511.507500",
          "093512.507500",
          "093513.507500",
          "093514.507500",
          "093515.507500",
          "093516.507500",
          "093517.507500",
          "093518.507500",
          "093519.507500",
          "093520.507500",
          "093521.507500",
          "093522.507500",
          "093523.507500",
          "093524.507500",
          "093525.507500",
          "093526.507500",
          "093527.507500",
          "093528.507500",
          "093529.507500",
          "093530.507500",
          "093531.507500",
          "093532.507500",
          "093533.507500",
          "093534.507500",
          "093535.507500",
          "093536.507500",
          "093537.507500",
          "093538.507500",
          "093539.507500",
          "093540.507500",
          "093541.507500",
          "093542.507500",
          "093543.507500",
          "093544.507500",
          "093545.507500",
          "093546.507500",
          "093547.507500",
          "093548.507500",
          "093549.507500",
          "093550.507500",
          "093551.507500",
          "093552.507500",
          "093553.507500",
          "093554.507500",
          "093555.507500",
          "093556.507500",
          "093557.507500",
          "093558.507500",
          "093559.507500",
          "093600.507500",
          "093601.507500",
          "093602.507500",
          "093603.507500",
          "093604.507500",
          "093605.507500",
          "093606.507500",
          "093607.507500",
          "093608.507500",
          "093609.507500",
          "093610.507500",
          "093611.507500",
          "093612.507500",
          "093613.507500",
          "093614.507500",
          "093615.507500",
          "093616.507500",
          "093617.507500",
          "093618.507500",
          "093619.507500",
          "093620.507500",
          "093621.507500",
          "093622.507500",
          "093623.507500",
          "093624.507500",
          "093625.507500",
          "093626.507500",
          "093627.507500",
          "093628.507500",
          "093629.507500",
          "093630.507500",
          "093631.507500",
          "093632.507500",
          "093633.507500",
          "093634.507500",
          "093635.507500",
          "093636.507500",
          "093637.507500",
          "093638.507500",
          "093639.507500",
          "093640.507500",
          "093641.507500",
          "093642.507500",
          "093643.507500",
          "093644.507500",
          "093645.507500",
          "093646.507500",
          "093647.507500",
          "093648.507500",
          "093649.507500",
          "093650.507500",
          "093651.507500",
          "093652.507500",
          "093653.507500",
          "093654.507500",
          "093655.507500",
          "093656.507500",
          "093657.507500",
          "093658.507500",
          "093659.507500",
          "093700.507500",
          "093701.507500",
          "093702.507500",
          "093703.507500",
          "093704.507500",
          "093705.507500",
          "093706.507500",
          "093707.507500",
          "093708.507500",
          "093709.507500",
          "093710.507500",
          "093711.507500",
          "093712.507500",
          "093713.507500",
          "093714.507500",
          "093715.507500",
          "093716.507500",
          "093717.507500",
          "093718.507500",
          "093719.507500",
          "093720.507500",
          "093721.507500",
          "093722.507500",
          "093723.507500",
          "093724.507500",
          "093725.507500",
          "093726.507500",
          "093727.507500",
          "093728.507500",
          "093729.507500",
          "093730.507500",
          "093731.507500",
          "093732.507500"
        ],
        "ContentTime": [
          "093517.118000",
          "093522.083000",
          "093522.093000",
          "093522.096000",
          "093522.099000",
          "093522.102000",
          "093522.105000",
          "093522.108000",
          "093527.083000",
          "093527.086000",
          "093527.089000",
          "093527.092000",
          "093527.095000",
          "093527.098000",
          "093527.101000",
          "093527.104000",
          "093532.083000",
          "093532.086000",
          "093532.089000",
          "093532.092000",
          "093532.095000",
          "093532.102000",
          "093532.105000",
          "093537.083000",
          "093537.086000",
          "093537.089000",
          "093537.092000",
          "093537.095000",
          "093537.098000",
          "093537.101000",
          "093542.083000",
          "093542.086000",
          "093542.089000",
          "093542.092000",
          "093542.095000",
          "093542.098000",
          "093542.101000",
          "093547.083000",
          "093547.086000",
          "093547.089000",
          "093547.092000",
          "093547.095000",
          "093547.098000",
          "093547.107000",
          "093552.083000",
          "093552.086000",
          "093552.089000",
          "093552.092000",
          "093552.095000",
          "093552.098000",
          "093552.101000",
          "093557.083000",
          "093557.086000",
          "093557.089000",
          "093557.092000",
          "093557.095000",
          "093557.098000",
          "093557.101000",
          "093602.083000",
          "093602.086000",
          "093602.089000",
          "093602.092000",
          "093602.095000",
          "093602.098000",
          "093602.101000",
          "093607.083000",
          "093607.086000",
          "093607.089000",
          "093607.092000",
          "093607.095000",
          "093607.098000",
          "093607.101000",
          "093612.083000",
          "093612.086000",
          "093612.089000",
          "093612.092000",
          "093612.095000",
          "093612.098000",
          "093612.101000",
          "093612.104000",
          "093617.083000",
          "093617.086000",
          "093617.089000",
          "093617.092000",
          "093617.095000",
          "093617.098000",
          "093617.101000",
          "093622.083000",
          "093622.086000",
          "093622.089000",
          "093622.092000",
          "093622.095000",
          "093622.098000",
          "093622.101000",
          "093627.083000",
          "093627.086000",
          "093627.089000",
          "093627.092000",
          "093627.107000",
          "093627.110000",
          "093627.113000",
          "093632.083000",
          "093632.086000",
          "093632.089000",
          "093632.092000",
          "093632.095000",
          "093632.098000",
          "093632.101000",
          "093637.083000",
          "093637.086000",
          "093637.089000",
          "093637.092000",
          "093637.095000",
          "093637.098000",
          "093637.101000",
          "093642.083000",
          "093642.086000",
          "093642.089000",
          "093642.092000",
          "093642.095000",
          "093642.098000",
          "093642.101000",
          "093647.083000",
          "093647.086000",
          "093647.089000",
          "093647.092000",
          "093647.095000",
          "093647.098000",
          "093647.101000",
          "093652.083000",
          "093652.086000",
          "093652.089000",
          "093652.092000",
          "093652.095000",
          "093652.098000",
          "093652.101000",
          "093657.083000",
          "093657.086000",
          "093657.089000",
          "093657.092000",
          "093657.095000",
          "093657.098000",
          "093657.101000",
          "093702.083000",
          "093702.086000",
          "093702.089000",
          "093702.092000",
          "093702.095000",
          "093702.098000",
          "093702.101000",
          "093707.083000",
          "093707.086000",
          "093707.089000",
          "093707.092000",
          "093707.095000",
          "093707.098000",
          "093707.101000",
          "093712.083000",
          "093712.086000",
          "093712.089000",
          "093712.092000",
          "093712.095000",
          "093712.098000",
          "093712.101000",
          "093717.083000",
          "093717.086000",
          "093717.089000",
          "093717.092000",
          "093717.095000",
          "093717.098000",
          "093717.101000",
          "093717.104000",
          "093722.083000",
          "093722.086000",
          "093722.089000",
          "093722.092000",
          "093722.095000",
          "093722.098000",
          "093722.101000",
          "093727.083000",
          "093727.086000",
          "093727.089000",
          "093727.092000",
          "093727.095000",
          "093732.083000",
          "093732.086000",
          "093732.089000",
          "093732.092000",
          "093732.095000",
          "093734.463000",
          "093734.467000",
          "093734.472000"
        ],
        "InstanceCreationTime": [
          "093517.118000",
          "093522.083000",
          "093522.093000",
          "093522.096000",
          "093522.099000",
          "093522.102000",
          "093522.105000",
          "093522.108000",
          "093527.083000",
          "093527.086000",
          "093527.089000",
          "093527.092000",
          "093527.095000",
          "093527.098000",
          "093527.101000",
          "093527.104000",
          "093532.083000",
          "093532.086000",
          "093532.089000",
          "093532.092000",
          "093532.095000",
          "093532.102000",
          "093532.105000",
          "093537.083000",
          "093537.086000",
          "093537.089000",
          "093537.092000",
          "093537.095000",
          "093537.098000",
          "093537.101000",
          "093542.083000",
          "093542.086000",
          "093542.089000",
          "093542.092000",
          "093542.095000",
          "093542.098000",
          "093542.101000",
          "093547.083000",
          "093547.086000",
          "093547.089000",
          "093547.092000",
          "093547.095000",
          "093547.098000",
          "093547.107000",
          "093552.083000",
          "093552.086000",
          "093552.089000",
          "093552.092000",
          "093552.095000",
          "093552.098000",
          "093552.101000",
          "093557.083000",
          "093557.086000",
          "093557.089000",
          "093557.092000",
          "093557.095000",
          "093557.098000",
          "093557.101000",
          "093602.083000",
          "093602.086000",
          "093602.089000",
          "093602.092000",
          "093602.095000",
          "093602.098000",
          "093602.101000",
          "093607.083000",
          "093607.086000",
          "093607.089000",
          "093607.092000",
          "093607.095000",
          "093607.098000",
          "093607.101000",
          "093612.083000",
          "093612.086000",
          "093612.089000",
          "093612.092000",
          "093612.095000",
          "093612.098000",
          "093612.101000",
          "093612.104000",
          "093617.083000",
          "093617.086000",
          "093617.089000",
          "093617.092000",
          "093617.095000",
          "093617.098000",
          "093617.101000",
          "093622.083000",
          "093622.086000",
          "093622.089000",
          "093622.092000",
          "093622.095000",
          "093622.098000",
          "093622.101000",
          "093627.083000",
          "093627.086000",
          "093627.089000",
          "093627.092000",
          "093627.107000",
          "093627.110000",
          "093627.113000",
          "093632.083000",
          "093632.086000",
          "093632.089000",
          "093632.092000",
          "093632.095000",
          "093632.098000",
          "093632.101000",
          "093637.083000",
          "093637.086000",
          "093637.089000",
          "093637.092000",
          "093637.095000",
          "093637.098000",
          "093637.101000",
          "093642.083000",
          "093642.086000",
          "093642.089000",
          "093642.092000",
          "093642.095000",
          "093642.098000",
          "093642.101000",
          "093647.083000",
          "093647.086000",
          "093647.089000",
          "093647.092000",
          "093647.095000",
          "093647.098000",
          "093647.101000",
          "093652.083000",
          "093652.086000",
          "093652.089000",
          "093652.092000",
          "093652.095000",
          "093652.098000",
          "093652.101000",
          "093657.083000",
          "093657.086000",
          "093657.089000",
          "093657.092000",
          "093657.095000",
          "093657.098000",
          "093657.101000",
          "093702.083000",
          "093702.086000",
          "093702.089000",
          "093702.092000",
          "093702.095000",
          "093702.098000",
          "093702.101000",
          "093707.083000",
          "093707.086000",
          "093707.089000",
          "093707.092000",
          "093707.095000",
          "093707.098000",
          "093707.101000",
          "093712.083000",
          "093712.086000",
          "093712.089000",
          "093712.092000",
          "093712.095000",
          "093712.098000",
          "093712.101000",
          "093717.083000",
          "093717.086000",
          "093717.089000",
          "093717.092000",
          "093717.095000",
          "093717.098000",
          "093717.101000",
          "093717.104000",
          "093722.083000",
          "093722.086000",
          "093722.089000",
          "093722.092000",
          "093722.095000",
          "093722.098000",
          "093722.101000",
          "093727.083000",
          "093727.086000",
          "093727.089000",
          "093727.092000",
          "093727.095000",
          "093732.083000",
          "093732.086000",
          "093732.089000",
          "093732.092000",
          "093732.095000",
          "093734.463000",
          "093734.467000",
          "093734.472000"
        ],
        "InstanceNumber": [
          1,
          2,
          3,
          4,
          5,
          6,
          7,
          8,
          9,
          10,
          11,
          12,
          13,
          14,
          15,
          16,
          17,
          18,
          19,
          20,
          21,
          22,
          23,
          24,
          25,
          26,
          27,
          28,
          29,
          30,
          31,
          32,
          33,
          34,
          35,
          36,
          37,
          38,
          39,
          40,
          41,
          42,
          43,
          44,
          45,
          46,
          47,
          48,
          49,
          50,
          51,
          52,
          53,
          54,
          55,
          56,
          57,
          58,
          59,
          60,
          61,
          62,
          63,
          64,
          65,
          66,
          67,
          68,
          69,
          70,
          71,
          72,
          73,
          74,
          75,
          76,
          77,
          78,
          79,
          80,
          81,
          82,
          83,
          84,
          85,
          86,
          87,
          88,
          89,
          90,
          91,
          92,
          93,
          94,
          95,
          96,
          97,
          98,
          99,
          100,
          101,
          102,
          103,
          104,
          105,
          106,
          107,
          108,
          109,
          110,
          111,
          112,
          113,
          114,
          115,
          116,
          117,
          118,
          119,
          120,
          121,
          122,
          123,
          124,
          125,
          126,
          127,
          128,
          129,
          130,
          131,
          132,
          133,
          134,
          135,
          136,
          137,
          138,
          139,
          140,
          141,
          142,
          143,
          144,
          145,
          146,
          147,
          148,
          149,
          150,
          151,
          152,
          153,
          154,
          155,
          156,
          157,
          158,
          159,
          160,
          161,
          162,
          163,
          164,
          165,
          166,
          167,
          168,
          169,
          170,
          171,
          172,
          173,
          174,
          175,
          176,
          177,
          178,
          179,
          180,
          181,
          182,
          183,
          184,
          185,
          186,
          187,
          188,
          189,
          190,
          191,
          192
        ],
        "LargestImagePixelValue": [
          34041,
          32892,
          33032,
          32480,
          33357,
          32481,
          32090,
          32570,
          33155,
          32523,
          33212,
          32337,
          32617,
          32935,
          32405,
          32221,
          32647,
          32256,
          32059,
          32105,
          32858,
          32518,
          32528,
          33247,
          32703,
          33898,
          33735,
          33286,
          32366,
          32936,
          32304,
          32419,
          32614,
          32379,
          33248,
          32523,
          32369,
          33225,
          32255,
          32350,
          32996,
          32415,
          32285,
          32320,
          32642,
          32202,
          32779,
          32630,
          31858,
          32863,
          32077,
          31926,
          33529,
          32981,
          33352,
          32441,
          32076,
          32171,
          32017,
          32382,
          33050,
          33033,
          31998,
          32271,
          32590,
          32570,
          34011,
          33625,
          32016,
          32674,
          32340,
          32859,
          32442,
          33222,
          32500,
          32752,
          32313,
          32190,
          32857,
          31987,
          31711,
          32970,
          32303,
