{
  "aor": 0.0005375,
  "aqi": 0.006197689583333333,
  "bids_meta": {
    "AcquisitionMatrixPE": 104,
    "AcquisitionNumber": 1,
    "AcquisitionTime": "16:12:10.867500",
    "BandwidthPerPixelPhaseEncode": 16.578,
    "BaseResolution": 104,
    "BodyPartExamined": "BRAIN",
    "CogAtlasID": "TODO",
    "ConsistencyInfo": "N4_VE11C_LATEST_20160120",
    "ConversionSoftware": "dcm2niix",
    "ConversionSoftwareVersion": "v1.0.20190902",
    "DerivedVendorReportedEchoSpacing": 0.000580009,
    "DeviceSerialNumber": "166018",
    "DwellTime": 2.1e-06,
    "EchoTime": 0.037,
    "EchoTrainLength": 104,
    "EffectiveEchoSpacing": 0.000580009,
    "FlipAngle": 68,
    "ImageComments": "Unaliased_MB6_PE3_LB",
    "ImageOrientationPatientDICOM": [
      0.994662,
      0.0872356,
      -0.0551188,
      -0.0941984,
      0.98568,
      -0.139863
    ],
    "ImageType": [
      "ORIGINAL",
      "PRIMARY",
      "M",
      "MB",
      "ND",
      "MOSAIC"
    ],
    "ImagingFrequency": 123.191,
    "InPlanePhaseEncodingDirectionDICOM": "COL",
    "InstitutionAddress": "Washington_Place_6_NYC_NYC_US_10003",
    "InstitutionName": "NYU_-_CBI",
    "InstitutionalDepartmentName": "Department",
    "MRAcquisitionType": "2D",
    "MagneticFieldStrength": 3,
    "Manufacturer": "Siemens",
    "ManufacturersModelName": "Prisma",
    "Modality": "MR",
    "MultibandAccelerationFactor": 6,
    "NumberOfVolumes": 192,
    "PartialFourier": 1,
    "PatientPosition": "HFS",
    "PercentPhaseFOV": 100,
    "PhaseEncodingDirection": "j",
    "PhaseEncodingSteps": 104,
    "PhaseResolution": 1,
    "PixelBandwidth": 2290,
    "ProcedureStepDescription": "Investigators_Winawer",
    "ProtocolName": "cmrr_mbepi_s6_2mm_66sl_PA_TR1.0",
    "PulseSequenceDetails": "%CustomerSeq%_cmrr_mbep2d_bold",
    "ReceiveCoilActiveElements": "HC1-7",
    "ReceiveCoilName": "HeadNeck_64",
    "ReconMatrixPE": 104,
    "RepetitionTime": 1,
    "SAR": 0.0659502,
    "ScanOptions": "FS",
    "ScanningSequence": "EP",
    "SequenceName": "epfid2d1_104",
    "SequenceVariant": "SK_SS",
    "SeriesDescription": "cmrr_mbepi_s6_2mm_66sl_PA_TR1.0",
    "SeriesNumber": 12,
    "ShimSetting": [
      241,
      -12547,
      -8420,
      485,
      0,
      51,
      4,
      0
    ],
    "SliceThickness": 2,
    "SliceTiming": [
      0,
      0.535,
      0.09,
      0.625,
      0.18,
      0.7125,
      0.2675,
      0.8025,
      0.3575,
      0.8925,
      0.4475,
      0,
      0.535,
      0.09,
      0.625,
      0.18,
      0.7125,
      0.2675,
      0.8025,
      0.3575,
      0.8925,
      0.4475,
      0,
      0.535,
      0.09,
      0.625,
      0.18,
      0.7125,
      0.2675,
      0.8025,
      0.3575,
      0.8925,
      0.4475,
      0,
      0.535,
      0.09,
      0.625,
      0.18,
      0.7125,
      0.2675,
      0.8025,
      0.3575,
      0.8925,
      0.4475,
      0,
      0.535,
      0.09,
      0.625,
      0.18,
      0.7125,
      0.2675,
      0.8025,
      0.3575,
      0.8925,
      0.4475,
      0,
      0.535,
      0.09,
      0.625,
      0.18,
      0.7125,
      0.2675,
      0.8025,
      0.3575,
      0.8925,
      0.4475
    ],
    "SoftwareVersions": "syngo_MR_E11",
    "SpacingBetweenSlices": 2,
    "StationName": "AWP166018",
    "TaskName": "prf",
    "TotalReadoutTime": 0.0597409,
    "TxRefAmp": 222.975,
    "WipMemBlock": "de7f3387-ebe6-4833-97aa-963b9301bd2c||Sequence: ve11c/master r/ab69a6c; Apr 19 2017 09:47:47 by eja",
    "acq_id": "PA",
    "dataset": "unknown",
    "dcmmeta_affine": [
      [
        -1.989323377609253,
        -0.18839670717716217,
        -0.0842568650841713,
        121.69368743896484
      ],
      [
        -0.17447121441364288,
        1.9713598489761353,
        -0.288617879152298,
        -59.11256790161133
      ],
      [
        -0.11023762822151184,
        0.27972692251205444,
        1.9772709608078003,
        -54.93240737915039
      ],
      [
        0.0,
        0.0,
        0.0,
        1.0
      ]
    ],
    "dcmmeta_reorient_transform": [
      [
        0.0,
        -1.0,
        0.0,
        103.0
      ],
      [
        1.0,
        0.0,
        0.0,
        0.0
      ],
      [
        0.0,
        0.0,
        1.0,
        0.0
      ],
      [
        0.0,
        0.0,
        0.0,
        1.0
      ]
    ],
    "dcmmeta_shape": [
      104,
      104,
      66,
      192
    ],
    "dcmmeta_slice_dim": 2,
    "dcmmeta_version": 0.6,
    "global": {
      "const": {
        "AccessionNumber": "j7je053q",
        "AcquisitionMatrix": [
          104,
          0,
          0,
          104
        ],
        "AngioFlag": "N",
        "BitsAllocated": 16,
        "BitsStored": 16,
        "BodyPartExamined": "BRAIN",
        "Columns": 936,
        "EchoNumbers": 1,
        "EchoTime": 37.0,
        "EchoTrainLength": 104,
        "FlipAngle": 68.0,
        "HighBit": 15,
        "ImageOrientationPatient": [
          0.99466168403017,
          0.0872356041281,
          -0.0551188143439,
          -0.094198351352,
          0.9856799078889,
          -0.1398634683779
        ],
        "ImagePositionPatient": [
          -851.47432059925,
          -1036.6031978124,
          136.10472735755
        ],
        "ImageType": [
          "ORIGINAL",
          "PRIMARY",
          "M",
          "MB",
          "ND",
          "MOSAIC"
        ],
        "ImagedNucleus": "1H",
        "ImagingFrequency": 123.191312,
        "InPlanePhaseEncodingDirection": "COL",
        "MRAcquisitionType": "2D",
        "MagneticFieldStrength": 3.0,
        "Manufacturer": "SIEMENS",
        "ManufacturerModelName": "Prisma",
        "Modality": "MR",
        "NumberOfAverages": 1.0,
        "NumberOfPhaseEncodingSteps": 104,
        "PercentPhaseFieldOfView": 100.0,
        "PercentSampling": 100.0,
        "PerformedProcedureStepStartTime": "160250.364000",
        "PhotometricInterpretation": "MONOCHROME2",
        "PixelBandwidth": 2290.0,
        "PixelRepresentation": 0,
        "PixelSpacing": [
          2.0,
          2.0
        ],
        "ProtocolName": "cmrr_mbepi_s6_2mm_66sl_PA_TR1.0",
        "RepetitionTime": 1000.0,
        "Rows": 936,
        "SAR": 0.06595021518919,
        "SamplesPerPixel": 1,
        "ScanOptions": "FS",
        "ScanningSequence": "EP",
        "SequenceName": "epfid2d1_104",
        "SequenceVariant": [
          "SK",
          "SS"
        ],
        "SeriesDescription": "cmrr_mbepi_s6_2mm_66sl_PA_TR1.0",
        "SeriesNumber": 12,
        "SeriesTime": "161333.172000",
        "SliceLocation": -50.904418915378,
        "SliceThickness": 2.0,
        "SmallestImagePixelValue": 0,
        "SoftwareVersions": "syngo MR E11",
        "SpacingBetweenSlices": 2.000000004934,
        "SpecificCharacterSet": "ISO_IR 100",
        "StudyID": "1",
        "StudyTime": "160250.303000",
        "TransmitCoilName": "Body",
        "VariableFlipAngleFlag": "N",
        "WindowCenterWidthExplanation": "Algo1",
        "dBdt": 0.0
      },
      "slices": {}
    },
    "modality": "bold",
    "run_id": 1,
    "session_id": "nyu3t01",
    "subject_id": "wlsubj023",
    "task_id": "prf",
    "time": {
      "samples": {
        "AcquisitionNumber": [
          1,
          2,
          3,
          4,
          5,
          6,
          7,
          8,
          9,
          10,
          11,
          12,
          13,
          14,
          15,
          16,
          17,
          18,
          19,
          20,
          21,
          22,
          23,
          24,
          25,
          26,
          27,
          28,
          29,
          30,
          31,
          32,
          33,
          34,
          35,
          36,
          37,
          38,
          39,
          40,
          41,
          42,
          43,
          44,
          45,
          46,
          47,
          48,
          49,
          50,
          51,
          52,
          53,
          54,
          55,
          56,
          57,
          58,
          59,
          60,
          61,
          62,
          63,
          64,
          65,
          66,
          67,
          68,
          69,
          70,
          71,
          72,
          73,
          74,
          75,
          76,
          77,
          78,
          79,
          80,
          81,
          82,
          83,
          84,
          85,
          86,
          87,
          88,
          89,
          90,
          91,
          92,
          93,
          94,
          95,
          96,
          97,
          98,
          99,
          100,
          101,
          102,
          103,
          104,
          105,
          106,
          107,
          108,
          109,
          110,
          111,
          112,
          113,
          114,
          115,
          116,
          117,
          118,
          119,
          120,
          121,
          122,
          123,
          124,
          125,
          126,
          127,
          128,
          129,
          130,
          131,
          132,
          133,
          134,
          135,
          136,
          137,
          138,
          139,
          140,
          141,
          142,
          143,
          144,
          145,
          146,
          147,
          148,
          149,
          150,
          151,
          152,
          153,
          154,
          155,
          156,
          157,
          158,
          159,
          160,
          161,
          162,
          163,
          164,
          165,
          166,
          167,
          168,
          169,
          170,
          171,
          172,
          173,
          174,
          175,
          176,
          177,
          178,
          179,
          180,
          181,
          182,
          183,
          184,
          185,
          186,
          187,
          188,
          189,
          190,
          191,
          192
        ],
        "AcquisitionTime": [
          "161210.867500",
          "161211.867500",
          "161212.867500",
          "161213.867500",
          "161214.867500",
          "161215.867500",
          "161216.867500",
          "161217.867500",
          "161218.867500",
          "161219.867500",
          "161220.867500",
          "161221.867500",
          "161222.867500",
          "161223.867500",
          "161224.867500",
          "161225.867500",
          "161226.867500",
          "161227.867500",
          "161228.867500",
          "161229.867500",
          "161230.867500",
          "161231.867500",
          "161232.867500",
          "161233.867500",
          "161234.867500",
          "161235.867500",
          "161236.867500",
          "161237.867500",
          "161238.867500",
          "161239.867500",
          "161240.867500",
          "161241.867500",
          "161242.867500",
          "161243.867500",
          "161244.867500",
          "161245.867500",
          "161246.867500",
          "161247.867500",
          "161248.867500",
          "161249.867500",
          "161250.867500",
          "161251.867500",
          "161252.867500",
          "161253.867500",
          "161254.867500",
          "161255.867500",
          "161256.867500",
          "161257.867500",
          "161258.867500",
          "161259.867500",
          "161300.867500",
          "161301.867500",
          "161302.867500",
          "161303.867500",
          "161304.867500",
          "161305.867500",
          "161306.867500",
          "161307.867500",
          "161308.867500",
          "161309.867500",
          "161310.867500",
          "161311.867500",
          "161312.867500",
          "161313.867500",
          "161314.867500",
          "161315.867500",
          "161316.867500",
          "161317.867500",
          "161318.867500",
          "161319.867500",
          "161320.867500",
          "161321.867500",
          "161322.867500",
          "161323.867500",
          "161324.867500",
          "161325.867500",
          "161326.867500",
          "161327.867500",
          "161328.867500",
          "161329.867500",
          "161330.867500",
          "161331.867500",
          "161332.867500",
          "161333.867500",
          "161334.867500",
          "161335.867500",
          "161336.867500",
          "161337.867500",
          "161338.867500",
          "161339.867500",
          "161340.867500",
          "161341.867500",
          "161342.867500",
          "161343.867500",
          "161344.867500",
          "161345.867500",
          "161346.867500",
          "161347.867500",
          "161348.867500",
          "161349.867500",
          "161350.867500",
          "161351.867500",
          "161352.867500",
          "161353.867500",
          "161354.867500",
          "161355.867500",
          "161356.867500",
          "161357.867500",
          "161358.867500",
          "161359.867500",
          "161400.867500",
          "161401.867500",
          "161402.867500",
          "161403.867500",
          "161404.867500",
          "161405.867500",
          "161406.867500",
          "161407.867500",
          "161408.867500",
          "161409.867500",
          "161410.867500",
          "161411.867500",
          "161412.867500",
          "161413.867500",
          "161414.867500",
          "161415.867500",
          "161416.867500",
          "161417.867500",
          "161418.867500",
          "161419.867500",
          "161420.867500",
          "161421.867500",
          "161422.867500",
          "161423.867500",
          "161424.867500",
          "161425.867500",
          "161426.867500",
          "161427.867500",
          "161428.867500",
          "161429.867500",
          "161430.867500",
          "161431.867500",
          "161432.867500",
          "161433.867500",
          "161434.867500",
          "161435.867500",
          "161436.867500",
          "161437.867500",
          "161438.867500",
          "161439.867500",
          "161440.867500",
          "161441.867500",
          "161442.867500",
          "161443.867500",
          "161444.867500",
          "161445.867500",
          "161446.867500",
          "161447.867500",
          "161448.867500",
          "161449.867500",
          "161450.867500",
          "161451.867500",
          "161452.867500",
          "161453.867500",
          "161454.867500",
          "161455.867500",
          "161456.867500",
          "161457.867500",
          "161458.867500",
          "161459.867500",
          "161500.867500",
          "161501.867500",
          "161502.867500",
          "161503.867500",
          "161504.867500",
          "161505.867500",
          "161506.867500",
          "161507.867500",
          "161508.867500",
          "161509.867500",
          "161510.867500",
          "161511.867500",
          "161512.867500",
          "161513.867500",
          "161514.867500",
          "161515.867500",
          "161516.867500",
          "161517.867500",
          "161518.867500",
          "161519.867500",
          "161520.867500",
          "161521.867500"
        ],
        "ContentTime": [
          "161333.175000",
          "161333.179000",
          "161333.182000",
          "161333.185000",
          "161333.188000",
          "161333.191000",
          "161333.194000",
          "161333.197000",
          "161333.200000",
          "161333.203000",
          "161333.210000",
          "161333.221000",
          "161333.224000",
          "161333.227000",
          "161333.230000",
          "161333.233000",
          "161333.236000",
          "161333.239000",
          "161333.242000",
          "161333.245000",
          "161333.248000",
          "161333.251000",
          "161333.254000",
          "161333.257000",
          "161333.260000",
          "161333.263000",
          "161333.266000",
          "161333.269000",
          "161333.272000",
          "161333.275000",
          "161333.278000",
          "161333.281000",
          "161333.284000",
          "161333.287000",
          "161333.290000",
          "161333.319000",
          "161333.322000",
          "161333.325000",
          "161333.328000",
          "161333.331000",
          "161333.334000",
          "161333.337000",
          "161333.340000",
          "161333.343000",
          "161333.346000",
          "161353.146000",
          "161353.149000",
          "161353.152000",
          "161353.155000",
          "161353.163000",
          "161353.166000",
          "161353.169000",
          "161353.172000",
          "161353.175000",
          "161353.178000",
          "161353.181000",
          "161353.184000",
          "161353.187000",
          "161353.190000",
          "161353.193000",
          "161353.196000",
          "161353.199000",
          "161353.202000",
          "161353.205000",
          "161353.208000",
          "161353.211000",
          "161353.214000",
          "161353.217000",
          "161353.220000",
          "161353.223000",
          "161353.226000",
          "161353.229000",
          "161353.232000",
          "161413.146000",
          "161413.149000",
          "161413.152000",
          "161413.155000",
          "161413.158000",
          "161413.161000",
          "161413.164000",
          "161413.167000",
          "161413.170000",
          "161413.173000",
          "161413.176000",
          "161413.179000",
          "161413.182000",
          "161413.185000",
          "161413.188000",
          "161413.191000",
          "161413.194000",
          "161413.197000",
          "161413.200000",
          "161413.203000",
          "161413.206000",
          "161413.209000",
          "161413.212000",
          "161413.215000",
          "161413.218000",
          "161413.221000",
          "161413.224000",
          "161413.227000",
          "161433.146000",
          "161433.149000",
          "161433.152000",
          "161433.155000",
          "161433.158000",
          "161433.161000",
          "161433.164000",
          "161433.167000",
          "161433.170000",
          "161433.173000",
          "161433.176000",
          "161433.179000",
          "161433.182000",
          "161433.185000",
          "161433.188000",
          "161433.191000",
          "161433.194000",
          "161433.197000",
          "161433.201000",
          "161433.204000",
          "161433.208000",
          "161433.211000",
          "161433.214000",
          "161433.217000",
          "161433.220000",
          "161433.223000",
          "161433.226000",
          "161433.229000",
          "161453.145000",
          "161453.148000",
          "161453.151000",
          "161453.154000",
          "161453.157000",
          "161453.160000",
          "161453.163000",
          "161453.166000",
          "161453.169000",
          "161453.172000",
          "161453.175000",
          "161453.178000",
          "161453.181000",
          "161453.184000",
          "161453.187000",
          "161453.190000",
          "161453.193000",
          "161453.196000",
          "161453.199000",
          "161453.202000",
          "161453.205000",
          "161453.208000",
          "161453.211000",
          "161453.214000",
          "161453.217000",
          "161453.220000",
          "161453.223000",
          "161453.226000",
          "161453.229000",
          "161513.145000",
          "161513.148000",
          "161513.151000",
          "161513.154000",
          "161513.157000",
          "161513.160000",
          "161513.163000",
          "161513.166000",
          "161513.169000",
          "161513.172000",
          "161513.175000",
          "161513.178000",
          "161513.181000",
          "161513.184000",
          "161513.188000",
          "161513.196000",
          "161513.199000",
          "161513.202000",
          "161513.205000",
          "161513.208000",
          "161513.211000",
          "161513.214000",
          "161513.217000",
          "161523.845000",
          "161523.848000",
          "161523.851000",
          "161523.854000",
          "161523.857000",
          "161523.860000",
          "161523.863000",
          "161523.866000",
          "161523.869000",
          "161523.872000",
          "161523.876000"
        ],
        "InstanceCreationTime": [
          "161333.175000",
          "161333.179000",
          "161333.182000",
          "161333.185000",
          "161333.188000",
          "161333.191000",
          "161333.194000",
          "161333.197000",
          "161333.200000",
          "161333.203000",
          "161333.210000",
          "161333.221000",
          "161333.224000",
          "161333.227000",
          "161333.230000",
          "161333.233000",
          "161333.236000",
          "161333.239000",
          "161333.242000",
          "161333.245000",
          "161333.248000",
          "161333.251000",
          "161333.254000",
          "161333.257000",
          "161333.260000",
          "161333.263000",
          "161333.266000",
          "161333.269000",
          "161333.272000",
          "161333.275000",
          "161333.278000",
          "161333.281000",
          "161333.284000",
          "161333.287000",
          "161333.290000",
          "161333.319000",
          "161333.322000",
          "161333.325000",
          "161333.328000",
          "161333.331000",
          "161333.334000",
          "161333.337000",
          "161333.340000",
          "161333.343000",
          "161333.346000",
          "161353.146000",
          "161353.149000",
          "161353.152000",
          "161353.155000",
          "161353.163000",
          "161353.166000",
          "161353.169000",
          "161353.172000",
          "161353.175000",
          "161353.178000",
          "161353.181000",
          "161353.184000",
          "161353.187000",
          "161353.190000",
          "161353.193000",
          "161353.196000",
          "161353.199000",
          "161353.202000",
          "161353.205000",
          "161353.208000",
          "161353.211000",
          "161353.214000",
          "161353.217000",
          "161353.220000",
          "161353.223000",
          "161353.226000",
          "161353.229000",
          "161353.232000",
          "161413.146000",
          "161413.149000",
          "161413.152000",
          "161413.155000",
          "161413.158000",
          "161413.161000",
          "161413.164000",
          "161413.167000",
          "161413.170000",
          "161413.173000",
          "161413.176000",
          "161413.179000",
          "161413.182000",
          "161413.185000",
          "161413.188000",
          "161413.191000",
          "161413.194000",
          "161413.197000",
          "161413.200000",
          "161413.203000",
          "161413.206000",
          "161413.209000",
          "161413.212000",
          "161413.215000",
          "161413.218000",
          "161413.221000",
          "161413.224000",
          "161413.227000",
          "161433.146000",
          "161433.149000",
          "161433.152000",
          "161433.155000",
          "161433.158000",
          "161433.161000",
          "161433.164000",
          "161433.167000",
          "161433.170000",
          "161433.173000",
          "161433.176000",
          "161433.179000",
          "161433.182000",
          "161433.185000",
          "161433.188000",
          "161433.191000",
          "161433.194000",
          "161433.197000",
          "161433.201000",
          "161433.204000",
          "161433.208000",
          "161433.211000",
          "161433.214000",
          "161433.217000",
          "161433.220000",
          "161433.223000",
          "161433.226000",
          "161433.229000",
          "161453.145000",
          "161453.148000",
          "161453.151000",
          "161453.154000",
          "161453.157000",
          "161453.160000",
          "161453.163000",
          "161453.166000",
          "161453.169000",
          "161453.172000",
          "161453.175000",
          "161453.178000",
          "161453.181000",
          "161453.184000",
          "161453.187000",
          "161453.190000",
          "161453.193000",
          "161453.196000",
          "161453.199000",
          "161453.202000",
          "161453.205000",
          "161453.208000",
          "161453.211000",
          "161453.214000",
          "161453.217000",
          "161453.220000",
          "161453.223000",
          "161453.226000",
          "161453.229000",
          "161513.145000",
          "161513.148000",
          "161513.151000",
          "161513.154000",
          "161513.157000",
          "161513.160000",
          "161513.163000",
          "161513.166000",
          "161513.169000",
          "161513.172000",
          "161513.175000",
          "161513.178000",
          "161513.181000",
          "161513.184000",
          "161513.188000",
          "161513.196000",
          "161513.199000",
          "161513.202000",
          "161513.205000",
          "161513.208000",
          "161513.211000",
          "161513.214000",
          "161513.217000",
          "161523.845000",
          "161523.848000",
          "161523.851000",
          "161523.854000",
          "161523.857000",
          "161523.860000",
          "161523.863000",
          "161523.866000",
          "161523.869000",
          "161523.872000",
          "161523.876000"
        ],
        "InstanceNumber": [
          1,
          2,
          3,
          4,
          5,
          6,
          7,
          8,
          9,
          10,
          11,
          12,
          13,
          14,
          15,
          16,
          17,
          18,
          19,
          20,
          21,
          22,
          23,
          24,
          25,
          26,
          27,
          28,
          29,
          30,
          31,
          32,
          33,
          34,
          35,
          36,
          37,
          38,
          39,
          40,
          41,
          42,
          43,
          44,
          45,
          46,
          47,
          48,
          49,
          50,
          51,
          52,
          53,
          54,
          55,
          56,
          57,
          58,
          59,
          60,
          61,
          62,
          63,
          64,
          65,
          66,
          67,
          68,
          69,
          70,
          71,
          72,
          73,
          74,
          75,
          76,
          77,
          78,
          79,
          80,
          81,
          82,
          83,
          84,
          85,
          86,
          87,
          88,
          89,
          90,
          91,
          92,
          93,
          94,
          95,
          96,
          97,
          98,
          99,
          100,
          101,
          102,
          103,
          104,
          105,
          106,
          107,
          108,
          109,
          110,
          111,
          112,
          113,
          114,
          115,
          116,
          117,
          118,
          119,
          120,
          121,
          122,
          123,
          124,
          125,
          126,
          127,
          128,
          129,
          130,
          131,
          132,
          133,
          134,
          135,
          136,
          137,
          138,
          139,
          140,
          141,
          142,
          143,
          144,
          145,
          146,
          147,
          148,
          149,
          150,
          151,
          152,
          153,
          154,
          155,
          156,
          157,
          158,
          159,
          160,
          161,
          162,
          163,
          164,
          165,
          166,
          167,
          168,
          169,
          170,
          171,
          172,
          173,
          174,
          175,
          176,
          177,
          178,
          179,
          180,
          181,
          182,
          183,
          184,
          185,
          186,
          187,
          188,
          189,
          190,
          191,
          192
        ],
        "LargestImagePixelValue": [
          29872,
          29540,
          29340,
          28489,
          28228,
          28991,
          32496,
          28003,
          28785,
          28919,
          28909,
          29452,
          28530,
          28567,
          28295,
          28568,
          28734,
          28451,
          28618,
          28853,
          28837,
          28929,
          28878,
          29269,
          29116,
          28859,
          28900,
          28626,
          28611,
          28808,
          28754,
          29212,
          28920,
          28866,
          28308,
          28968,
          29334,
          28574,
          29158,
          29185,
          28512,
          28873,
          28583,
          28892,
          28693,
          28763,
          28277,
          28757,
          28901,
          29146,
          28772,
          28395,
          28028,
          29080,
          28687,
          28751,
          28701,
          28576,
          29195,
          28319,
          28078,
          29012,
          28595,
          28699,
          28743,
          28709,
          29093,
          28888,
          28816,
          28691,
          28907,
          29068,
          29194,
          28821,
          28693,
          28649,
          28216,
          28901,
          29031,
          28853,
          29049,
          29049,
          29138,
          29136,
          28928,
