{
  "aor": 0.00055453125,
  "aqi": 0.00748430828125,
  "bids_meta": {
    "AcquisitionMatrixPE": 104,
    "AcquisitionNumber": 1,
    "AcquisitionTime": "16:28:36.725000",
    "BandwidthPerPixelPhaseEncode": 16.578,
    "BaseResolution": 104,
    "BodyPartExamined": "BRAIN",
    "CogAtlasID": "TODO",
    "ConsistencyInfo": "N4_VE11C_LATEST_20160120",
    "ConversionSoftware": "dcm2niix",
    "ConversionSoftwareVersion": "v1.0.20190902",
    "DerivedVendorReportedEchoSpacing": 0.000580009,
    "DeviceSerialNumber": "166018",
    "DwellTime": 2.1e-06,
    "EchoTime": 0.037,
    "EchoTrainLength": 104,
    "EffectiveEchoSpacing": 0.000580009,
    "FlipAngle": 68,
    "ImageComments": "Unaliased_MB6_PE3_LB",
    "ImageOrientationPatientDICOM": [
      0.994662,
      0.0872356,
      -0.0551188,
      -0.0941984,
      0.98568,
      -0.139863
    ],
    "ImageType": [
      "ORIGINAL",
      "PRIMARY",
      "M",
      "MB",
      "ND",
      "MOSAIC"
    ],
    "ImagingFrequency": 123.191,
    "InPlanePhaseEncodingDirectionDICOM": "COL",
    "InstitutionAddress": "Washington_Place_6_NYC_NYC_US_10003",
    "InstitutionName": "NYU_-_CBI",
    "InstitutionalDepartmentName": "Department",
    "MRAcquisitionType": "2D",
    "MagneticFieldStrength": 3,
    "Manufacturer": "Siemens",
    "ManufacturersModelName": "Prisma",
    "Modality": "MR",
    "MultibandAccelerationFactor": 6,
    "NumberOfVolumes": 192,
    "PartialFourier": 1,
    "PatientPosition": "HFS",
    "PercentPhaseFOV": 100,
    "PhaseEncodingDirection": "j",
    "PhaseEncodingSteps": 104,
    "PhaseResolution": 1,
    "PixelBandwidth": 2290,
    "ProcedureStepDescription": "Investigators_Winawer",
    "ProtocolName": "cmrr_mbepi_s6_2mm_66sl_PA_TR1.0",
    "PulseSequenceDetails": "%CustomerSeq%_cmrr_mbep2d_bold",
    "ReceiveCoilActiveElements": "HC1-7",
    "ReceiveCoilName": "HeadNeck_64",
    "ReconMatrixPE": 104,
    "RepetitionTime": 1,
    "SAR": 0.0659502,
    "ScanOptions": "FS",
    "ScanningSequence": "EP",
    "SequenceName": "epfid2d1_104",
    "SequenceVariant": "SK_SS",
    "SeriesDescription": "cmrr_mbepi_s6_2mm_66sl_PA_TR1.0",
    "SeriesNumber": 20,
    "ShimSetting": [
      241,
      -12547,
      -8420,
      485,
      0,
      51,
      4,
      0
    ],
    "SliceThickness": 2,
    "SliceTiming": [
      0,
      0.535,
      0.09,
      0.6225,
      0.1775,
      0.7125,
      0.2675,
      0.8025,
      0.355,
      0.89,
      0.445,
      0,
      0.535,
      0.09,
      0.6225,
      0.1775,
      0.7125,
      0.2675,
      0.8025,
      0.355,
      0.89,
      0.445,
      0,
      0.535,
      0.09,
      0.6225,
      0.1775,
      0.7125,
      0.2675,
      0.8025,
      0.355,
      0.89,
      0.445,
      0,
      0.535,
      0.09,
      0.6225,
      0.1775,
      0.7125,
      0.2675,
      0.8025,
      0.355,
      0.89,
      0.445,
      0,
      0.535,
      0.09,
      0.6225,
      0.1775,
      0.7125,
      0.2675,
      0.8025,
      0.355,
      0.89,
      0.445,
      0,
      0.535,
      0.09,
      0.6225,
      0.1775,
      0.7125,
      0.2675,
      0.8025,
      0.355,
      0.89,
      0.445
    ],
    "SoftwareVersions": "syngo_MR_E11",
    "SpacingBetweenSlices": 2,
    "StationName": "AWP166018",
    "TaskName": "prf",
    "TotalReadoutTime": 0.0597409,
    "TxRefAmp": 222.975,
    "WipMemBlock": "52058ca6-14bc-4381-9978-07d052026143||Sequence: ve11c/master r/ab69a6c; Apr 19 2017 09:47:47 by eja",
    "acq_id": "PA",
    "dataset": "unknown",
    "dcmmeta_affine": [
      [
        -1.989323377609253,
        -0.18839670717716217,
        -0.0842568650841713,
        121.69368743896484
      ],
      [
        -0.17447121441364288,
        1.9713598489761353,
        -0.288617879152298,
        -59.11256790161133
      ],
      [
        -0.11023762822151184,
        0.27972692251205444,
        1.9772709608078003,
        -54.93240737915039
      ],
      [
        0.0,
        0.0,
        0.0,
        1.0
      ]
    ],
    "dcmmeta_reorient_transform": [
      [
        0.0,
        -1.0,
        0.0,
        103.0
      ],
      [
        1.0,
        0.0,
        0.0,
        0.0
      ],
      [
        0.0,
        0.0,
        1.0,
        0.0
      ],
      [
        0.0,
        0.0,
        0.0,
        1.0
      ]
    ],
    "dcmmeta_shape": [
      104,
      104,
      66,
      192
    ],
    "dcmmeta_slice_dim": 2,
    "dcmmeta_version": 0.6,
    "global": {
      "const": {
        "AccessionNumber": "j7je053q",
        "AcquisitionMatrix": [
          104,
          0,
          0,
          104
        ],
        "AngioFlag": "N",
        "BitsAllocated": 16,
        "BitsStored": 16,
        "BodyPartExamined": "BRAIN",
        "Columns": 936,
        "EchoNumbers": 1,
        "EchoTime": 37.0,
        "EchoTrainLength": 104,
        "FlipAngle": 68.0,
        "HighBit": 15,
        "ImageOrientationPatient": [
          0.99466168403017,
          0.0872356041281,
          -0.0551188143439,
          -0.094198351352,
          0.9856799078889,
          -0.1398634683779
        ],
        "ImagePositionPatient": [
          -851.47432059925,
          -1036.6031978124,
          136.10472735755
        ],
        "ImageType": [
          "ORIGINAL",
          "PRIMARY",
          "M",
          "MB",
          "ND",
          "MOSAIC"
        ],
        "ImagedNucleus": "1H",
        "ImagingFrequency": 123.191324,
        "InPlanePhaseEncodingDirection": "COL",
        "MRAcquisitionType": "2D",
        "MagneticFieldStrength": 3.0,
        "Manufacturer": "SIEMENS",
        "ManufacturerModelName": "Prisma",
        "Modality": "MR",
        "NumberOfAverages": 1.0,
        "NumberOfPhaseEncodingSteps": 104,
        "PercentPhaseFieldOfView": 100.0,
        "PercentSampling": 100.0,
        "PerformedProcedureStepStartTime": "160250.364000",
        "PhotometricInterpretation": "MONOCHROME2",
        "PixelBandwidth": 2290.0,
        "PixelRepresentation": 0,
        "PixelSpacing": [
          2.0,
          2.0
        ],
        "ProtocolName": "cmrr_mbepi_s6_2mm_66sl_PA_TR1.0",
        "RepetitionTime": 1000.0,
        "Rows": 936,
        "SAR": 0.06595021518919,
        "SamplesPerPixel": 1,
        "ScanOptions": "FS",
        "ScanningSequence": "EP",
        "SequenceName": "epfid2d1_104",
        "SequenceVariant": [
          "SK",
          "SS"
        ],
        "SeriesDescription": "cmrr_mbepi_s6_2mm_66sl_PA_TR1.0",
        "SeriesNumber": 20,
        "SeriesTime": "162958.536000",
        "SliceLocation": -50.904418915378,
        "SliceThickness": 2.0,
        "SmallestImagePixelValue": 0,
        "SoftwareVersions": "syngo MR E11",
        "SpacingBetweenSlices": 2.000000004934,
        "SpecificCharacterSet": "ISO_IR 100",
        "StudyID": "1",
        "StudyTime": "160250.303000",
        "TransmitCoilName": "Body",
        "VariableFlipAngleFlag": "N",
        "WindowCenterWidthExplanation": "Algo1",
        "dBdt": 0.0
      },
      "slices": {}
    },
    "modality": "bold",
    "run_id": 5,
    "session_id": "nyu3t01",
    "subject_id": "wlsubj023",
    "task_id": "prf",
    "time": {
      "samples": {
        "AcquisitionNumber": [
          1,
          2,
          3,
          4,
          5,
          6,
          7,
          8,
          9,
          10,
          11,
          12,
          13,
          14,
          15,
          16,
          17,
          18,
          19,
          20,
          21,
          22,
          23,
          24,
          25,
          26,
          27,
          28,
          29,
          30,
          31,
          32,
          33,
          34,
          35,
          36,
          37,
          38,
          39,
          40,
          41,
          42,
          43,
          44,
          45,
          46,
          47,
          48,
          49,
          50,
          51,
          52,
          53,
          54,
          55,
          56,
          57,
          58,
          59,
          60,
          61,
          62,
          63,
          64,
          65,
          66,
          67,
          68,
          69,
          70,
          71,
          72,
          73,
          74,
          75,
          76,
          77,
          78,
          79,
          80,
          81,
          82,
          83,
          84,
          85,
          86,
          87,
          88,
          89,
          90,
          91,
          92,
          93,
          94,
          95,
          96,
          97,
          98,
          99,
          100,
          101,
          102,
          103,
          104,
          105,
          106,
          107,
          108,
          109,
          110,
          111,
          112,
          113,
          114,
          115,
          116,
          117,
          118,
          119,
          120,
          121,
          122,
          123,
          124,
          125,
          126,
          127,
          128,
          129,
          130,
          131,
          132,
          133,
          134,
          135,
          136,
          137,
          138,
          139,
          140,
          141,
          142,
          143,
          144,
          145,
          146,
          147,
          148,
          149,
          150,
          151,
          152,
          153,
          154,
          155,
          156,
          157,
          158,
          159,
          160,
          161,
          162,
          163,
          164,
          165,
          166,
          167,
          168,
          169,
          170,
          171,
          172,
          173,
          174,
          175,
          176,
          177,
          178,
          179,
          180,
          181,
          182,
          183,
          184,
          185,
          186,
          187,
          188,
          189,
          190,
          191,
          192
        ],
        "AcquisitionTime": [
          "162836.725000",
          "162837.725000",
          "162838.725000",
          "162839.725000",
          "162840.725000",
          "162841.725000",
          "162842.725000",
          "162843.725000",
          "162844.725000",
          "162845.725000",
          "162846.725000",
          "162847.725000",
          "162848.725000",
          "162849.725000",
          "162850.725000",
          "162851.725000",
          "162852.725000",
          "162853.725000",
          "162854.725000",
          "162855.725000",
          "162856.725000",
          "162857.725000",
          "162858.725000",
          "162859.725000",
          "162900.725000",
          "162901.725000",
          "162902.725000",
          "162903.725000",
          "162904.725000",
          "162905.725000",
          "162906.725000",
          "162907.725000",
          "162908.725000",
          "162909.725000",
          "162910.725000",
          "162911.725000",
          "162912.725000",
          "162913.725000",
          "162914.725000",
          "162915.725000",
          "162916.725000",
          "162917.725000",
          "162918.725000",
          "162919.725000",
          "162920.725000",
          "162921.725000",
          "162922.725000",
          "162923.725000",
          "162924.725000",
          "162925.725000",
          "162926.725000",
          "162927.725000",
          "162928.725000",
          "162929.725000",
          "162930.725000",
          "162931.725000",
          "162932.725000",
          "162933.725000",
          "162934.725000",
          "162935.725000",
          "162936.725000",
          "162937.725000",
          "162938.725000",
          "162939.725000",
          "162940.725000",
          "162941.725000",
          "162942.725000",
          "162943.725000",
          "162944.725000",
          "162945.725000",
          "162946.725000",
          "162947.725000",
          "162948.725000",
          "162949.725000",
          "162950.725000",
          "162951.725000",
          "162952.725000",
          "162953.725000",
          "162954.725000",
          "162955.725000",
          "162956.725000",
          "162957.725000",
          "162958.725000",
          "162959.725000",
          "163000.725000",
          "163001.725000",
          "163002.725000",
          "163003.725000",
          "163004.725000",
          "163005.725000",
          "163006.725000",
          "163007.725000",
          "163008.725000",
          "163009.725000",
          "163010.725000",
          "163011.725000",
          "163012.725000",
          "163013.725000",
          "163014.725000",
          "163015.725000",
          "163016.725000",
          "163017.725000",
          "163018.725000",
          "163019.725000",
          "163020.725000",
          "163021.725000",
          "163022.725000",
          "163023.725000",
          "163024.725000",
          "163025.725000",
          "163026.725000",
          "163027.725000",
          "163028.725000",
          "163029.725000",
          "163030.725000",
          "163031.725000",
          "163032.725000",
          "163033.725000",
          "163034.725000",
          "163035.725000",
          "163036.725000",
          "163037.725000",
          "163038.725000",
          "163039.725000",
          "163040.725000",
          "163041.725000",
          "163042.725000",
          "163043.725000",
          "163044.725000",
          "163045.725000",
          "163046.725000",
          "163047.725000",
          "163048.725000",
          "163049.725000",
          "163050.725000",
          "163051.725000",
          "163052.725000",
          "163053.725000",
          "163054.725000",
          "163055.725000",
          "163056.725000",
          "163057.725000",
          "163058.725000",
          "163059.725000",
          "163100.725000",
          "163101.725000",
          "163102.725000",
          "163103.725000",
          "163104.725000",
          "163105.725000",
          "163106.725000",
          "163107.725000",
          "163108.725000",
          "163109.725000",
          "163110.725000",
          "163111.725000",
          "163112.725000",
          "163113.725000",
          "163114.725000",
          "163115.725000",
          "163116.725000",
          "163117.725000",
          "163118.725000",
          "163119.725000",
          "163120.725000",
          "163121.725000",
          "163122.725000",
          "163123.725000",
          "163124.725000",
          "163125.725000",
          "163126.725000",
          "163127.725000",
          "163128.725000",
          "163129.725000",
          "163130.725000",
          "163131.725000",
          "163132.725000",
          "163133.725000",
          "163134.725000",
          "163135.725000",
          "163136.725000",
          "163137.725000",
          "163138.725000",
          "163139.725000",
          "163140.725000",
          "163141.725000",
          "163142.725000",
          "163143.725000",
          "163144.725000",
          "163145.725000",
          "163146.725000",
          "163147.725000"
        ],
        "ContentTime": [
          "162958.540000",
          "162958.543000",
          "162958.547000",
          "162958.550000",
          "162958.553000",
          "162958.556000",
          "162958.558000",
          "162958.561000",
          "162958.564000",
          "162958.567000",
          "162958.571000",
          "162958.580000",
          "162958.583000",
          "162958.586000",
          "162958.589000",
          "162958.592000",
          "162958.595000",
          "162958.598000",
          "162958.601000",
          "162958.604000",
          "162958.607000",
          "162958.610000",
          "162958.613000",
          "162958.616000",
          "162958.619000",
          "162958.622000",
          "162958.625000",
          "162958.628000",
          "162958.631000",
          "162958.634000",
          "162958.637000",
          "162958.640000",
          "162958.643000",
          "162958.646000",
          "162958.649000",
          "162958.652000",
          "162958.655000",
          "162958.658000",
          "162958.661000",
          "162958.664000",
          "162958.667000",
          "162958.669000",
          "162958.673000",
          "163018.512000",
          "163018.515000",
          "163018.518000",
          "163018.521000",
          "163018.524000",
          "163018.527000",
          "163018.530000",
          "163018.533000",
          "163018.536000",
          "163018.539000",
          "163018.542000",
          "163018.545000",
          "163018.548000",
          "163018.560000",
          "163018.563000",
          "163018.566000",
          "163018.569000",
          "163018.572000",
          "163018.575000",
          "163018.578000",
          "163018.581000",
          "163018.584000",
          "163018.587000",
          "163018.590000",
          "163018.593000",
          "163018.596000",
          "163018.599000",
          "163018.602000",
          "163038.512000",
          "163038.515000",
          "163038.518000",
          "163038.521000",
          "163038.524000",
          "163038.527000",
          "163038.530000",
          "163038.534000",
          "163038.537000",
          "163038.540000",
          "163038.543000",
          "163038.546000",
          "163038.549000",
          "163038.553000",
          "163038.556000",
          "163038.559000",
          "163038.562000",
          "163038.565000",
          "163038.568000",
          "163038.571000",
          "163038.574000",
          "163038.577000",
          "163038.580000",
          "163038.583000",
          "163038.586000",
          "163038.589000",
          "163038.592000",
          "163038.595000",
          "163058.512000",
          "163058.515000",
          "163058.518000",
          "163058.521000",
          "163058.524000",
          "163058.527000",
          "163058.530000",
          "163058.533000",
          "163058.536000",
          "163058.539000",
          "163058.542000",
          "163058.545000",
          "163058.548000",
          "163058.551000",
          "163058.554000",
          "163058.557000",
          "163058.560000",
          "163058.563000",
          "163058.566000",
          "163058.569000",
          "163058.572000",
          "163058.586000",
          "163058.589000",
          "163058.592000",
          "163058.595000",
          "163058.598000",
          "163058.601000",
          "163058.604000",
          "163118.512000",
          "163118.515000",
          "163118.518000",
          "163118.521000",
          "163118.524000",
          "163118.527000",
          "163118.530000",
          "163118.533000",
          "163118.536000",
          "163118.539000",
          "163118.542000",
          "163118.545000",
          "163118.548000",
          "163118.551000",
          "163118.554000",
          "163118.557000",
          "163118.560000",
          "163118.563000",
          "163118.566000",
          "163118.569000",
          "163118.572000",
          "163118.575000",
          "163118.578000",
          "163118.581000",
          "163118.584000",
          "163118.587000",
          "163118.590000",
          "163118.593000",
          "163138.513000",
          "163138.516000",
          "163138.519000",
          "163138.522000",
          "163138.525000",
          "163138.528000",
          "163138.531000",
          "163138.534000",
          "163138.537000",
          "163138.540000",
          "163138.543000",
          "163138.546000",
          "163138.549000",
          "163138.552000",
          "163138.556000",
          "163138.559000",
          "163138.562000",
          "163138.565000",
          "163138.569000",
          "163138.572000",
          "163138.575000",
          "163138.578000",
          "163138.581000",
          "163138.592000",
          "163138.595000",
          "163138.598000",
          "163149.567000",
          "163149.570000",
          "163149.573000",
          "163149.577000",
          "163149.580000",
          "163149.582000",
          "163149.585000",
          "163149.588000",
          "163149.592000",
          "163149.595000",
          "163149.597000"
        ],
        "InstanceCreationTime": [
          "162958.540000",
          "162958.543000",
          "162958.547000",
          "162958.550000",
          "162958.553000",
          "162958.556000",
          "162958.558000",
          "162958.561000",
          "162958.564000",
          "162958.567000",
          "162958.571000",
          "162958.580000",
          "162958.583000",
          "162958.586000",
          "162958.589000",
          "162958.592000",
          "162958.595000",
          "162958.598000",
          "162958.601000",
          "162958.604000",
          "162958.607000",
          "162958.610000",
          "162958.613000",
          "162958.616000",
          "162958.619000",
          "162958.622000",
          "162958.625000",
          "162958.628000",
          "162958.631000",
          "162958.634000",
          "162958.637000",
          "162958.640000",
          "162958.643000",
          "162958.646000",
          "162958.649000",
          "162958.652000",
          "162958.655000",
          "162958.658000",
          "162958.661000",
          "162958.664000",
          "162958.667000",
          "162958.669000",
          "162958.673000",
          "163018.512000",
          "163018.515000",
          "163018.518000",
          "163018.521000",
          "163018.524000",
          "163018.527000",
          "163018.530000",
          "163018.533000",
          "163018.536000",
          "163018.539000",
          "163018.542000",
          "163018.545000",
          "163018.548000",
          "163018.560000",
          "163018.563000",
          "163018.566000",
          "163018.569000",
          "163018.572000",
          "163018.575000",
          "163018.578000",
          "163018.581000",
          "163018.584000",
          "163018.587000",
          "163018.590000",
          "163018.593000",
          "163018.596000",
          "163018.599000",
          "163018.602000",
          "163038.512000",
          "163038.515000",
          "163038.518000",
          "163038.521000",
          "163038.524000",
          "163038.527000",
          "163038.530000",
          "163038.534000",
          "163038.537000",
          "163038.540000",
          "163038.543000",
          "163038.546000",
          "163038.549000",
          "163038.553000",
          "163038.556000",
          "163038.559000",
          "163038.562000",
          "163038.565000",
          "163038.568000",
          "163038.571000",
          "163038.574000",
          "163038.577000",
          "163038.580000",
          "163038.583000",
          "163038.586000",
          "163038.589000",
          "163038.592000",
          "163038.595000",
          "163058.512000",
          "163058.515000",
          "163058.518000",
          "163058.521000",
          "163058.524000",
          "163058.527000",
          "163058.530000",
          "163058.533000",
          "163058.536000",
          "163058.539000",
          "163058.542000",
          "163058.545000",
          "163058.548000",
          "163058.551000",
          "163058.554000",
          "163058.557000",
          "163058.560000",
          "163058.563000",
          "163058.566000",
          "163058.569000",
          "163058.572000",
          "163058.586000",
          "163058.589000",
          "163058.592000",
          "163058.595000",
          "163058.598000",
          "163058.601000",
          "163058.604000",
          "163118.512000",
          "163118.515000",
          "163118.518000",
          "163118.521000",
          "163118.524000",
          "163118.527000",
          "163118.530000",
          "163118.533000",
          "163118.536000",
          "163118.539000",
          "163118.542000",
          "163118.545000",
          "163118.548000",
          "163118.551000",
          "163118.554000",
          "163118.557000",
          "163118.560000",
          "163118.563000",
          "163118.566000",
          "163118.569000",
          "163118.572000",
          "163118.575000",
          "163118.578000",
          "163118.581000",
          "163118.584000",
          "163118.587000",
          "163118.590000",
          "163118.593000",
          "163138.513000",
          "163138.516000",
          "163138.519000",
          "163138.522000",
          "163138.525000",
          "163138.528000",
          "163138.531000",
          "163138.534000",
          "163138.537000",
          "163138.540000",
          "163138.543000",
          "163138.546000",
          "163138.549000",
          "163138.552000",
          "163138.556000",
          "163138.559000",
          "163138.562000",
          "163138.565000",
          "163138.569000",
          "163138.572000",
          "163138.575000",
          "163138.578000",
          "163138.581000",
          "163138.592000",
          "163138.595000",
          "163138.598000",
          "163149.567000",
          "163149.570000",
          "163149.573000",
          "163149.577000",
          "163149.580000",
          "163149.582000",
          "163149.585000",
          "163149.588000",
          "163149.592000",
          "163149.595000",
          "163149.597000"
        ],
        "InstanceNumber": [
          1,
          2,
          3,
          4,
          5,
          6,
          7,
          8,
          9,
          10,
          11,
          12,
          13,
          14,
          15,
          16,
          17,
          18,
          19,
          20,
          21,
          22,
          23,
          24,
          25,
          26,
          27,
          28,
          29,
          30,
          31,
          32,
          33,
          34,
          35,
          36,
          37,
          38,
          39,
          40,
          41,
          42,
          43,
          44,
          45,
          46,
          47,
          48,
          49,
          50,
          51,
          52,
          53,
          54,
          55,
          56,
          57,
          58,
          59,
          60,
          61,
          62,
          63,
          64,
          65,
          66,
          67,
          68,
          69,
          70,
          71,
          72,
          73,
          74,
          75,
          76,
          77,
          78,
          79,
          80,
          81,
          82,
          83,
          84,
          85,
          86,
          87,
          88,
          89,
          90,
          91,
          92,
          93,
          94,
          95,
          96,
          97,
          98,
          99,
          100,
          101,
          102,
          103,
          104,
          105,
          106,
          107,
          108,
          109,
          110,
          111,
          112,
          113,
          114,
          115,
          116,
          117,
          118,
          119,
          120,
          121,
          122,
          123,
          124,
          125,
          126,
          127,
          128,
          129,
          130,
          131,
          132,
          133,
          134,
          135,
          136,
          137,
          138,
          139,
          140,
          141,
          142,
          143,
          144,
          145,
          146,
          147,
          148,
          149,
          150,
          151,
          152,
          153,
          154,
          155,
          156,
          157,
          158,
          159,
          160,
          161,
          162,
          163,
          164,
          165,
          166,
          167,
          168,
          169,
          170,
          171,
          172,
          173,
          174,
          175,
          176,
          177,
          178,
          179,
          180,
          181,
          182,
          183,
          184,
          185,
          186,
          187,
          188,
          189,
          190,
          191,
          192
        ],
        "LargestImagePixelValue": [
          31719,
          29925,
          29389,
          30122,
          29163,
          29469,
          29979,
          29362,
          29809,
          29107,
          29190,
          29710,
          29528,
          29567,
          29984,
          31158,
          29736,
          29586,
          28981,
          30052,
          29330,
          29629,
          29774,
          29466,
          30145,
          29841,
          29375,
          30202,
          29763,
          29736,
          29964,
          29684,
          30102,
          29711,
          29301,
          29697,
          29871,
          29686,
          30001,
          29769,
          30024,
          29933,
          29725,
          30478,
          29500,
          30014,
          30228,
          30434,
          30450,
          31143,
          30028,
          30146,
          30368,
          32005,
          30231,
          30224,
          29772,
          30154,
          30576,
          30172,
          29916,
          29875,
          29950,
          29806,
          30643,
          30202,
          30596,
          30012,
          30294,
          30400,
          30220,
          30370,
          31559,
          32282,
          30414,
          30017,
          30533,
          30651,
          30576,
          30148,
          30393,
          29506,
          29923,
          29349,
          29536,
