{
  "AcquisitionMatrixPE": 104,
  "AcquisitionNumber": 1,
  "AcquisitionTime": "16:15:27.507500",
  "BandwidthPerPixelPhaseEncode": 16.578,
  "BaseResolution": 104,
  "BodyPartExamined": "BRAIN",
  "ConsistencyInfo": "N4_VE11C_LATEST_20160120",
  "ConversionSoftware": "dcm2niix",
  "ConversionSoftwareVersion": "v1.0.20190902",
  "DerivedVendorReportedEchoSpacing": 0.000580009,
  "DeviceSerialNumber": "166018",
  "DwellTime": 2.1e-06,
  "EchoTime": 0.037,
  "EchoTrainLength": 104,
  "EffectiveEchoSpacing": 0.000580009,
  "FlipAngle": 68,
  "ImageComments": "Unaliased_MB6_PE3_LB",
  "ImageOrientationPatientDICOM": [0.998521, -0.0247588, 0.048393, 0.0415013, 0.922188, -0.38451],
  "ImageType": [
    "ORIGINAL",
    "PRIMARY",
    "M",
    "MB",
    "ND",
    "MOSAIC"
],
  "ImagingFrequency": 123.191,
  "InPlanePhaseEncodingDirectionDICOM": "COL",
  "InstitutionAddress": "Washington_Place_6_NYC_NYC_US_10003",
  "InstitutionName": "NYU_-_CBI",
  "InstitutionalDepartmentName": "Department",
  "MRAcquisitionType": "2D",
  "MagneticFieldStrength": 3,
  "Manufacturer": "Siemens",
  "ManufacturersModelName": "Prisma",
  "Modality": "MR",
  "MultibandAccelerationFactor": 6,
  "PartialFourier": 1,
  "PatientPosition": "HFS",
  "PercentPhaseFOV": 100,
  "PhaseEncodingDirection": "j",
  "PhaseEncodingSteps": 104,
  "PhaseResolution": 1,
  "PixelBandwidth": 2290,
  "ProcedureStepDescription": "Investigators_Winawer",
  "ProtocolName": "cmrr_mbepi_s6_2mm_66sl_PA_TR1.0",
  "PulseSequenceDetails": "%CustomerSeq%_cmrr_mbep2d_bold",
  "ReceiveCoilActiveElements": "HC1-7",
  "ReceiveCoilName": "HeadNeck_64",
  "ReconMatrixPE": 104,
  "RepetitionTime": 1,
  "SAR": 0.065334,
  "ScanOptions": "FS",
  "ScanningSequence": "EP",
  "SequenceName": "epfid2d1_104",
  "SequenceVariant": "SK_SS",
  "SeriesDescription": "cmrr_mbepi_s6_2mm_66sl_PA_TR1.0",
  "SeriesNumber": 24,
  "ShimSetting": [261, -12580, -8459, 482, 6, -143, -82, -33],
  "SliceThickness": 2,
  "SliceTiming": [0, 0.535, 0.09, 0.625, 0.18, 0.7125, 0.2675, 0.8025, 0.3575, 0.8925, 0.4475, 0, 0.535, 0.09, 0.625, 0.18, 0.7125, 0.2675, 0.8025, 0.3575, 0.8925, 0.4475, 0, 0.535, 0.09, 0.625, 0.18, 0.7125, 0.2675, 0.8025, 0.3575, 0.8925, 0.4475, 0, 0.535, 0.09, 0.625, 0.18, 0.7125, 0.2675, 0.8025, 0.3575, 0.8925, 0.4475, 0, 0.535, 0.09, 0.625, 0.18, 0.7125, 0.2675, 0.8025, 0.3575, 0.8925, 0.4475, 0, 0.535, 0.09, 0.625, 0.18, 0.7125, 0.2675, 0.8025, 0.3575, 0.8925, 0.4475],
  "SoftwareVersions": "syngo_MR_E11",
  "SpacingBetweenSlices": 2,
  "StationName": "AWP166018",
  "TaskName": "prf",
  "TotalReadoutTime": 0.0597409,
  "TxRefAmp": 234.373,
  "WipMemBlock": "f00b4274-79a4-428b-adfe-eeddc02bcf75||Sequence: ve11c/master r/ab69a6c; Apr 19 2017 09:47:47 by eja",
  "dcmmeta_affine": [
    [-1.9970428943634033, 0.0830025002360344, 0.0702148973941803, 110.34679412841797],
    [0.049517672508955, 1.8443751335144043, -0.7718992829322815, -64.71625518798828],
    [0.09678608924150467, 0.7690195441246033, 1.843703269958496, -96.47901916503906],
    [0.0, 0.0, 0.0, 1.0]
],
  "dcmmeta_reorient_transform": [
    [0.0, -1.0, 0.0, 103.0],
    [1.0, 0.0, 0.0, 0.0],
    [0.0, 0.0, 1.0, 0.0],
    [0.0, 0.0, 0.0, 1.0]
],
  "dcmmeta_shape": [104, 104, 66, 192],
  "dcmmeta_slice_dim": 2,
  "dcmmeta_version": 0.6,
  "global": {
    "const": {
      "AccessionNumber": "j6wepnxe",
      "AcquisitionMatrix": [104, 0, 0, 104],
      "AngioFlag": "N",
      "BitsAllocated": 16,
      "BitsStored": 16,
      "BodyPartExamined": "BRAIN",
      "Columns": 936,
      "EchoNumbers": 1,
      "EchoTime": 37.0,
      "EchoTrainLength": 104,
      "FlipAngle": 68.0,
      "HighBit": 15,
      "ImageOrientationPatient": [0.99852146361479, -0.0247588370637, 0.04839304379581, 0.04150125035507, 0.9221875559071, -0.3845097631388],
      "ImagePositionPatient": [-984.19494958396, -871.91507572875, 262.37910260703],
      "ImageType": [
        "ORIGINAL",
        "PRIMARY",
        "M",
        "MB",
        "ND",
        "MOSAIC"
],
      "ImagedNucleus": "1H",
      "ImagingFrequency": 123.191345,
      "InPlanePhaseEncodingDirection": "COL",
      "MRAcquisitionType": "2D",
      "MagneticFieldStrength": 3.0,
      "Manufacturer": "SIEMENS",
      "ManufacturerModelName": "Prisma",
      "Modality": "MR",
      "NumberOfAverages": 1.0,
      "NumberOfPhaseEncodingSteps": 104,
      "PercentPhaseFieldOfView": 100.0,
      "PercentSampling": 100.0,
      "PerformedProcedureStepStartTime": "154117.736000",
      "PhotometricInterpretation": "MONOCHROME2",
      "PixelBandwidth": 2290.0,
      "PixelRepresentation": 0,
      "PixelSpacing": [2.0, 2.0],
      "ProtocolName": "cmrr_mbepi_s6_2mm_66sl_PA_TR1.0",
      "RepetitionTime": 1000.0,
      "Rows": 936,
      "SAR": 0.06533400942532,
      "SamplesPerPixel": 1,
      "ScanOptions": "FS",
      "ScanningSequence": "EP",
      "SequenceName": "epfid2d1_104",
      "SequenceVariant": [
        "SK",
        "SS"
],
      "SeriesDescription": "cmrr_mbepi_s6_2mm_66sl_PA_TR1.0",
      "SeriesNumber": 24,
      "SeriesTime": "161629.237000",
      "SliceLocation": -60.088128683745,
      "SliceThickness": 2.0,
      "SmallestImagePixelValue": 0,
      "SoftwareVersions": "syngo MR E11",
      "SpacingBetweenSlices": 2.0000000486852,
      "SpecificCharacterSet": "ISO_IR 100",
      "StudyID": "1",
      "StudyTime": "154117.674000",
      "TransmitCoilName": "Body",
      "VariableFlipAngleFlag": "N",
      "WindowCenterWidthExplanation": "Algo1",
      "dBdt": 0.0},
    "slices": {}
  },
  "time": {
    "samples": {
      "AcquisitionNumber": [1, 2, 3, 4, 5, 6, 7, 8, 9, 10, 11, 12, 13, 14, 15, 16, 17, 18, 19, 20, 21, 22, 23, 24, 25, 26, 27, 28, 29, 30, 31, 32, 33, 34, 35, 36, 37, 38, 39, 40, 41, 42, 43, 44, 45, 46, 47, 48, 49, 50, 51, 52, 53, 54, 55, 56, 57, 58, 59, 60, 61, 62, 63, 64, 65, 66, 67, 68, 69, 70, 71, 72, 73, 74, 75, 76, 77, 78, 79, 80, 81, 82, 83, 84, 85, 86, 87, 88, 89, 90, 91, 92, 93, 94, 95, 96, 97, 98, 99, 100, 101, 102, 103, 104, 105, 106, 107, 108, 109, 110, 111, 112, 113, 114, 115, 116, 117, 118, 119, 120, 121, 122, 123, 124, 125, 126, 127, 128, 129, 130, 131, 132, 133, 134, 135, 136, 137, 138, 139, 140, 141, 142, 143, 144, 145, 146, 147, 148, 149, 150, 151, 152, 153, 154, 155, 156, 157, 158, 159, 160, 161, 162, 163, 164, 165, 166, 167, 168, 169, 170, 171, 172, 173, 174, 175, 176, 177, 178, 179, 180, 181, 182, 183, 184, 185, 186, 187, 188, 189, 190, 191, 192],
      "AcquisitionTime": ["161527.507500", "161528.507500", "161529.507500", "161530.507500", "161531.507500", "161532.507500", "161533.507500", "161534.507500", "161535.507500", "161536.507500", "161537.507500", "161538.507500", "161539.507500", "161540.507500", "161541.507500", "161542.507500", "161543.507500", "161544.507500", "161545.507500", "161546.507500", "161547.507500", "161548.507500", "161549.507500", "161550.507500", "161551.507500", "161552.507500", "161553.507500", "161554.507500", "161555.507500", "161556.507500", "161557.507500", "161558.507500", "161559.507500", "161600.507500", "161601.507500", "161602.507500", "161603.507500", "161604.507500", "161605.507500", "161606.507500", "161607.507500", "161608.507500", "161609.507500", "161610.507500", "161611.507500", "161612.507500", "161613.507500", "161614.507500", "161615.507500", "161616.507500", "161617.507500", "161618.507500", "161619.507500", "161620.507500", "161621.507500", "161622.507500", "161623.507500", "161624.507500", "161625.507500", "161626.507500", "161627.507500", "161628.507500", "161629.507500", "161630.507500", "161631.507500", "161632.507500", "161633.507500", "161634.507500", "161635.507500", "161636.507500", "161637.507500", "161638.507500", "161639.507500", "161640.507500", "161641.507500", "161642.507500", "161643.507500", "161644.507500", "161645.507500", "161646.507500", "161647.507500", "161648.507500", "161649.507500", "161650.507500", "161651.507500", "161652.507500", "161653.507500", "161654.507500", "161655.507500", "161656.507500", "161657.507500", "161658.507500", "161659.507500", "161700.507500", "161701.507500", "161702.507500", "161703.507500", "161704.507500", "161705.507500", "161706.507500", "161707.507500", "161708.507500", "161709.507500", "161710.507500", "161711.507500", "161712.507500", "161713.507500", "161714.507500", "161715.507500", "161716.507500", "161717.507500", "161718.507500", "161719.507500", "161720.507500", "161721.507500", "161722.507500", "161723.507500", "161724.507500", "161725.507500", "161726.507500", "161727.507500", "161728.507500", "161729.507500", "161730.507500", "161731.507500", "161732.507500", "161733.507500", "161734.507500", "161735.507500", "161736.507500", "161737.507500", "161738.507500", "161739.507500", "161740.507500", "161741.507500", "161742.507500", "161743.507500", "161744.507500", "161745.507500", "161746.507500", "161747.507500", "161748.507500", "161749.507500", "161750.507500", "161751.507500", "161752.507500", "161753.507500", "161754.507500", "161755.507500", "161756.507500", "161757.507500", "161758.507500", "161759.507500", "161800.507500", "161801.507500", "161802.507500", "161803.507500", "161804.507500", "161805.507500", "161806.507500", "161807.507500", "161808.507500", "161809.507500", "161810.507500", "161811.507500", "161812.507500", "161813.507500", "161814.507500", "161815.507500", "161816.507500", "161817.507500", "161818.507500", "161819.507500", "161820.507500", "161821.507500", "161822.507500", "161823.507500", "161824.507500", "161825.507500", "161826.507500", "161827.507500", "161828.507500", "161829.507500", "161830.507500", "161831.507500", "161832.507500", "161833.507500", "161834.507500", "161835.507500", "161836.507500", "161837.507500", "161838.507500"],
      "ContentTime": ["161629.239000", "161629.243000", "161629.254000", "161629.257000", "161629.260000", "161629.263000", "161629.266000", "161629.269000", "161649.211000", "161649.214000", "161649.217000", "161649.220000", "161649.223000", "161649.226000", "161649.229000", "161649.232000", "161649.235000", "161649.238000", "161649.241000", "161649.244000", "161649.247000", "161649.250000", "161649.253000", "161649.256000", "161649.259000", "161649.262000", "161649.265000", "161649.268000", "161649.274000", "161649.277000", "161649.280000", "161649.283000", "161649.286000", "161649.289000", "161649.292000", "161649.295000", "161649.298000", "161709.211000", "161709.214000", "161709.217000", "161709.220000", "161709.223000", "161709.226000", "161709.229000", "161709.232000", "161709.235000", "161709.238000", "161709.241000", "161709.244000", "161709.247000", "161709.250000", "161709.253000", "161709.256000", "161709.259000", "161709.262000", "161709.265000", "161709.268000", "161709.271000", "161709.274000", "161709.290000", "161709.293000", "161709.296000", "161709.299000", "161709.302000", "161709.305000", "161729.211000", "161729.214000", "161729.217000", "161729.220000", "161729.223000", "161729.226000", "161729.229000", "161729.232000", "161729.235000", "161729.238000", "161729.245000", "161729.248000", "161729.251000", "161729.254000", "161729.257000", "161729.260000", "161729.263000", "161729.266000", "161729.269000", "161729.272000", "161729.275000", "161729.284000", "161729.287000", "161729.290000", "161729.293000", "161729.296000", "161729.299000", "161729.302000", "161749.211000", "161749.214000", "161749.217000", "161749.220000", "161749.223000", "161749.226000", "161749.229000", "161749.232000", "161749.235000", "161749.238000", "161749.251000", "161749.257000", "161749.263000", "161749.266000", "161749.270000", "161749.273000", "161749.276000", "161749.279000", "161749.282000", "161749.285000", "161749.288000", "161749.291000", "161749.294000", "161749.297000", "161749.299000", "161749.302000", "161749.305000", "161749.308000", "161809.211000", "161809.214000", "161809.217000", "161809.220000", "161809.223000", "161809.226000", "161809.229000", "161809.232000", "161809.235000", "161809.238000", "161809.241000", "161809.244000", "161809.247000", "161809.250000", "161809.253000", "161809.256000", "161809.259000", "161809.262000", "161809.265000", "161809.268000", "161809.271000", "161809.274000", "161809.277000", "161809.280000", "161809.283000", "161809.286000", "161809.289000", "161809.292000", "161809.295000", "161829.211000", "161829.214000", "161829.217000", "161829.220000", "161829.223000", "161829.226000", "161829.229000", "161829.232000", "161829.235000", "161829.238000", "161829.241000", "161829.244000", "161829.247000", "161829.250000", "161829.253000", "161829.256000", "161829.259000", "161829.266000", "161829.269000", "161829.272000", "161829.275000", "161829.279000", "161829.282000", "161829.285000", "161829.287000", "161829.291000", "161829.294000", "161829.297000", "161839.943000", "161839.947000", "161839.950000", "161839.953000", "161839.956000", "161839.959000", "161839.962000", "161839.965000", "161839.968000", "161839.971000", "161839.974000", "161839.977000", "161839.980000", "161839.983000"],
      "InstanceCreationTime": ["161629.239000", "161629.243000", "161629.254000", "161629.257000", "161629.260000", "161629.263000", "161629.266000", "161629.269000", "161649.211000", "161649.214000", "161649.217000", "161649.220000", "161649.223000", "161649.226000", "161649.229000", "161649.232000", "161649.235000", "161649.238000", "161649.241000", "161649.244000", "161649.247000", "161649.250000", "161649.253000", "161649.256000", "161649.259000", "161649.262000", "161649.265000", "161649.268000", "161649.274000", "161649.277000", "161649.280000", "161649.283000", "161649.286000", "161649.289000", "161649.292000", "161649.295000", "161649.298000", "161709.211000", "161709.214000", "161709.217000", "161709.220000", "161709.223000", "161709.226000", "161709.229000", "161709.232000", "161709.235000", "161709.238000", "161709.241000", "161709.244000", "161709.247000", "161709.250000", "161709.253000", "161709.256000", "161709.259000", "161709.262000", "161709.265000", "161709.268000", "161709.271000", "161709.274000", "161709.290000", "161709.293000", "161709.296000", "161709.299000", "161709.302000", "161709.305000", "161729.211000", "161729.214000", "161729.217000", "161729.220000", "161729.223000", "161729.226000", "161729.229000", "161729.232000", "161729.235000", "161729.238000", "161729.245000", "161729.248000", "161729.251000", "161729.254000", "161729.257000", "161729.260000", "161729.263000", "161729.266000", "161729.269000", "161729.272000", "161729.275000", "161729.284000", "161729.287000", "161729.290000", "161729.293000", "161729.296000", "161729.299000", "161729.302000", "161749.211000", "161749.214000", "161749.217000", "161749.220000", "161749.223000", "161749.226000", "161749.229000", "161749.232000", "161749.235000", "161749.238000", "161749.251000", "161749.257000", "161749.263000", "161749.266000", "161749.270000", "161749.273000", "161749.276000", "161749.279000", "161749.282000", "161749.285000", "161749.288000", "161749.291000", "161749.294000", "161749.297000", "161749.299000", "161749.302000", "161749.305000", "161749.308000", "161809.211000", "161809.214000", "161809.217000", "161809.220000", "161809.223000", "161809.226000", "161809.229000", "161809.232000", "161809.235000", "161809.238000", "161809.241000", "161809.244000", "161809.247000", "161809.250000", "161809.253000", "161809.256000", "161809.259000", "161809.262000", "161809.265000", "161809.268000", "161809.271000", "161809.274000", "161809.277000", "161809.280000", "161809.283000", "161809.286000", "161809.289000", "161809.292000", "161809.295000", "161829.211000", "161829.214000", "161829.217000", "161829.220000", "161829.223000", "161829.226000", "161829.229000", "161829.232000", "161829.235000", "161829.238000", "161829.241000", "161829.244000", "161829.247000", "161829.250000", "161829.253000", "161829.256000", "161829.259000", "161829.266000", "161829.269000", "161829.272000", "161829.275000", "161829.279000", "161829.282000", "161829.285000", "161829.287000", "161829.291000", "161829.294000", "161829.297000", "161839.943000", "161839.947000", "161839.950000", "161839.953000", "161839.956000", "161839.959000", "161839.962000", "161839.965000", "161839.968000", "161839.971000", "161839.974000", "161839.977000", "161839.980000", "161839.983000"],
      "InstanceNumber": [1, 2, 3, 4, 5, 6, 7, 8, 9, 10, 11, 12, 13, 14, 15, 16, 17, 18, 19, 20, 21, 22, 23, 24, 25, 26, 27, 28, 29, 30, 31, 32, 33, 34, 35, 36, 37, 38, 39, 40, 41, 42, 43, 44, 45, 46, 47, 48, 49, 50, 51, 52, 53, 54, 55, 56, 57, 58, 59, 60, 61, 62, 63, 64, 65, 66, 67, 68, 69, 70, 71, 72, 73, 74, 75, 76, 77, 78, 79, 80, 81, 82, 83, 84, 85, 86, 87, 88, 89, 90, 91, 92, 93, 94, 95, 96, 97, 98, 99, 100, 101, 102, 103, 104, 105, 106, 107, 108, 109, 110, 111, 112, 113, 114, 115, 116, 117, 118, 119, 120, 121, 122, 123, 124, 125, 126, 127, 128, 129, 130, 131, 132, 133, 134, 135, 136, 137, 138, 139, 140, 141, 142, 143, 144, 145, 146, 147, 148, 149, 150, 151, 152, 153, 154, 155, 156, 157, 158, 159, 160, 161, 162, 163, 164, 165, 166, 167, 168, 169, 170, 171, 172, 173, 174, 175, 176, 177, 178, 179, 180, 181, 182, 183, 184, 185, 186, 187, 188, 189, 190, 191, 192],
      "LargestImagePixelValue": [33290, 32243, 32244, 31664, 31672, 31209, 31315, 31589, 31691, 31329, 31478, 31948, 31658, 30968, 31380, 31645, 30930, 31023, 31131, 31608, 31092, 31275, 31416, 32015, 31848, 31499, 32293, 31993, 31505, 33500, 31574, 31725, 31756, 31806, 31803, 31643, 31626, 32298, 31477, 31536, 31003, 30939, 31412, 31482, 31034, 31726, 31129, 31814, 31376, 31113, 31633, 32081, 31625, 31292, 31984, 31600, 31539, 31522, 31795, 31486, 31482, 31527, 31608, 31601, 31396, 31481, 31614, 31499, 31146, 31262, 30862, 31174, 31550, 31475, 31762, 31121, 31881, 31241, 31087, 31341, 31889, 31692, 30812, 31562, 31370, 31276, 30756, 30955, 31235, 31229, 31627, 31031, 31393, 31368, 31090, 31660, 30776, 31488, 31591, 31126, 31212, 31600, 31652, 31605, 31567, 31809, 32020, 32234, 31267, 31999, 31492, 31163, 31116, 31607, 31777, 30948, 31115, 30707, 31291, 31302, 31308, 31675, 31516, 31485, 31266, 31765, 31931, 32016, 31673, 31561, 31226, 31435, 31252, 30885, 30455, 31105, 31106, 31123, 30680, 30888, 31229, 31157, 31239, 31130, 31268, 31617, 31607, 31660, 31230, 31127, 32437, 32384, 31211, 31062, 31255, 31422, 30855, 30748, 31472, 31228, 30169, 30602, 31227, 31349, 31394, 30698, 30917, 31028, 31387, 31502, 31292, 31499, 31503, 31204, 31570, 31640, 31416, 31112, 31335, 31659, 31357, 31074, 30714, 30751, 31283, 31188, 31018, 31320, 31009, 31014, 30835, 31084],
      "WindowCenter": [9768.0, 9718.0, 9707.0, 9701.0, 9693.0, 9686.0, 9677.0, 9673.0, 9664.0, 9664.0, 9658.0, 9679.0, 9690.0, 9688.0, 9702.0, 9703.0, 9688.0, 9673.0, 9669.0, 9672.0, 9659.0, 9668.0, 9678.0, 9700.0, 9700.0, 9687.0, 9695.0, 9690.0, 9677.0, 9712.0, 9683.0, 9683.0, 9682.0, 9681.0, 9675.0, 9684.0, 9683.0, 9695.0, 9694.0, 9704.0, 9702.0, 9700.0, 9695.0, 9679.0, 9671.0, 9684.0, 9681.0, 9684.0, 9669.0, 9660.0, 9664.0, 9680.0, 9685.0, 9695.0, 9699.0, 9684.0, 9673.0, 9657.0, 9647.0, 9640.0, 9639.0, 9652.0, 9648.0, 9664.0, 9662.0, 9670.0, 9684.0, 9678.0, 9671.0, 9676.0, 9667.0, 9672.0, 9691.0, 9687.0, 9693.0, 9681.0, 9699.0, 9694.0, 9682.0, 9686.0, 9683.0, 9682.0, 9664.0, 9682.0, 9677.0, 9678.0, 9665.0, 9671.0, 9678.0, 9680.0, 9693.0, 9681.0, 9679.0, 9679.0, 9687.0, 9700.0, 9692.0, 9696.0, 9702.0, 9691.0, 9696.0, 9695.0, 9693.0, 9684.0, 9683.0, 9674.0, 9681.0, 9693.0, 9678.0, 9699.0, 9696.0, 9698.0, 9700.0, 9711.0, 9704.0, 9691.0, 9689.0, 9684.0, 9694.0, 9686.0, 9678.0, 9675.0, 9668.0, 9667.0, 9669.0, 9676.0, 9682.0, 9681.0, 9673.0, 9672.0, 9666.0, 9668.0, 9667.0, 9661.0, 9657.0, 9673.0, 9683.0, 9690.0, 9684.0, 9676.0, 9680.0, 9665.0, 9676.0, 9664.0, 9670.0, 9674.0, 9675.0, 9675.0, 9671.0, 9672.0, 9687.0, 9680.0, 9667.0, 9656.0, 9661.0, 9661.0, 9655.0, 9657.0, 9678.0, 9682.0, 9672.0, 9683.0, 9688.0, 9679.0, 9669.0, 9649.0, 9646.0, 9646.0, 9650.0, 9659.0, 9661.0, 9661.0, 9662.0, 9663.0, 9668.0, 9668.0, 9669.0, 9673.0, 9683.0, 9696.0, 9688.0, 9674.0, 9662.0, 9660.0, 9674.0, 9674.0, 9674.0, 9680.0, 9675.0, 9682.0, 9679.0, 9676.0],
      "WindowWidth": [20937.0, 20816.0, 20784.0, 20768.0, 20751.0, 20737.0, 20716.0, 20704.0, 20684.0, 20685.0, 20675.0, 20714.0, 20740.0, 20744.0, 20772.0, 20770.0, 20740.0, 20712.0, 20701.0, 20699.0, 20677.0, 20693.0, 20718.0, 20764.0, 20763.0, 20737.0, 20745.0, 20738.0, 20716.0, 20774.0, 20726.0, 20725.0, 20722.0, 20719.0, 20709.0, 20729.0, 20728.0, 20749.0, 20754.0, 20781.0, 20777.0, 20771.0, 20754.0, 20720.0, 20703.0, 20727.0, 20723.0, 20727.0, 20698.0, 20678.0, 20684.0, 20716.0, 20733.0, 20755.0, 20759.0, 20728.0, 20701.0, 20667.0, 20644.0, 20631.0, 20630.0, 20653.0, 20651.0, 20685.0, 20685.0, 20702.0, 20729.0, 20720.0, 20708.0, 20714.0, 20701.0, 20711.0, 20745.0, 20741.0, 20751.0, 20730.0, 20761.0, 20752.0, 20729.0, 20731.0, 20723.0, 20723.0, 20693.0, 20723.0, 20716.0, 20719.0, 20697.0, 20708.0, 20721.0, 20728.0, 20752.0, 20726.0, 20721.0, 20722.0, 20742.0, 20764.0, 20753.0, 20758.0, 20771.0, 20751.0, 20757.0, 20754.0, 20748.0, 20727.0, 20723.0, 20706.0, 20718.0, 20741.0, 20720.0, 20760.0, 20762.0, 20766.0, 20772.0, 20788.0, 20778.0, 20751.0, 20745.0, 20738.0, 20754.0, 20737.0, 20719.0, 20707.0, 20695.0, 20692.0, 20698.0, 20713.0, 20722.0, 20717.0, 20701.0, 20699.0, 20690.0, 20695.0, 20690.0, 20683.0, 20681.0, 20714.0, 20735.0, 20749.0, 20736.0, 20717.0, 20722.0, 20694.0, 20710.0, 20692.0, 20703.0, 20706.0, 20707.0, 20711.0, 20706.0, 20708.0, 20729.0, 20717.0, 20693.0, 20675.0, 20681.0, 20683.0, 20676.0, 20679.0, 20721.0, 20735.0, 20722.0, 20737.0, 20740.0, 20719.0, 20699.0, 20659.0, 20649.0, 20649.0, 20658.0, 20675.0, 20680.0, 20680.0, 20685.0, 20686.0, 20693.0, 20694.0, 20699.0, 20708.0, 20732.0, 20755.0, 20741.0, 20714.0, 20690.0, 20686.0, 20713.0, 20713.0, 20712.0, 20723.0, 20716.0, 20730.0, 20727.0, 20715.0]
    },
    "slices": {}
  },
  "NumberOfVolumes": 192
}