{
  "AcquisitionMatrixPE": 104,
  "AcquisitionNumber": 1,
  "AcquisitionTime": "15:31:56.445000",
  "BandwidthPerPixelPhaseEncode": 16.578,
  "BaseResolution": 104,
  "BodyPartExamined": "BRAIN",
  "ConsistencyInfo": "N4_VE11C_LATEST_20160120",
  "ConversionSoftware": "dcm2niix",
  "ConversionSoftwareVersion": "v1.0.20190902",
  "DerivedVendorReportedEchoSpacing": 0.000580009,
  "DeviceSerialNumber": "166018",
  "DwellTime": 2.1e-06,
  "EchoTime": 0.037,
  "EchoTrainLength": 104,
  "EffectiveEchoSpacing": 0.000580009,
  "FlipAngle": 68,
  "ImageComments": "Unaliased_MB6_PE3_LB",
  "ImageOrientationPatientDICOM": [0.999707, -0.00551688, 0.0235628, 0.00663041, 0.998852, -0.0474446],
  "ImageType": [
    "ORIGINAL",
    "PRIMARY",
    "M",
    "MB",
    "ND",
    "MOSAIC"
],
  "ImagingFrequency": 123.191,
  "InPlanePhaseEncodingDirectionDICOM": "COL",
  "InstitutionAddress": "Washington_Place_6_NYC_NYC_US_10003",
  "InstitutionName": "NYU_-_CBI",
  "InstitutionalDepartmentName": "Department",
  "MRAcquisitionType": "2D",
  "MagneticFieldStrength": 3,
  "Manufacturer": "Siemens",
  "ManufacturersModelName": "Prisma",
  "Modality": "MR",
  "MultibandAccelerationFactor": 6,
  "PartialFourier": 1,
  "PatientPosition": "HFS",
  "PercentPhaseFOV": 100,
  "PhaseEncodingDirection": "j",
  "PhaseEncodingSteps": 104,
  "PhaseResolution": 1,
  "PixelBandwidth": 2290,
  "ProcedureStepDescription": "Investigators_Winawer",
  "ProtocolName": "cmrr_mbepi_s6_2mm_66sl_PA_task-prf",
  "PulseSequenceDetails": "%CustomerSeq%_cmrr_mbep2d_bold",
  "ReceiveCoilActiveElements": "HC1-7",
  "ReceiveCoilName": "HeadNeck_64",
  "ReconMatrixPE": 104,
  "RepetitionTime": 1,
  "SAR": 0.0738207,
  "ScanOptions": "FS",
  "ScanningSequence": "EP",
  "SequenceName": "epfid2d1_104",
  "SequenceVariant": "SK_SS",
  "SeriesDescription": "cmrr_mbepi_s6_2mm_66sl_PA_task-prf",
  "SeriesNumber": 12,
  "ShimSetting": [276, -12624, -8444, 403, 20, -171, -12, 32],
  "SliceThickness": 2,
  "SliceTiming": [0, 0.535, 0.09, 0.625, 0.18, 0.7125, 0.2675, 0.8025, 0.3575, 0.8925, 0.445, 0, 0.535, 0.09, 0.625, 0.18, 0.7125, 0.2675, 0.8025, 0.3575, 0.8925, 0.445, 0, 0.535, 0.09, 0.625, 0.18, 0.7125, 0.2675, 0.8025, 0.3575, 0.8925, 0.445, 0, 0.535, 0.09, 0.625, 0.18, 0.7125, 0.2675, 0.8025, 0.3575, 0.8925, 0.445, 0, 0.535, 0.09, 0.625, 0.18, 0.7125, 0.2675, 0.8025, 0.3575, 0.8925, 0.445, 0, 0.535, 0.09, 0.625, 0.18, 0.7125, 0.2675, 0.8025, 0.3575, 0.8925, 0.445],
  "SoftwareVersions": "syngo_MR_E11",
  "SpacingBetweenSlices": 2,
  "StationName": "AWP166018",
  "TaskName": "prf",
  "TotalReadoutTime": 0.0597409,
  "TxRefAmp": 215.997,
  "WipMemBlock": "e2f44eaa-9a11-4098-a87d-105d6f6e5c3a||Sequence: R016 ve11c/master r/8780670; Nov 27 2017 15:05:12 by eja",
  "dcmmeta_affine": [
    [-1.999414324760437, 0.013260826468467712, 0.046548087149858475, 107.22315216064453],
    [0.011033750139176846, 1.9977036714553833, -0.09517396986484528, -78.54827117919922],
    [0.0471256822347641, 0.09488929808139801, 1.9971919059753418, -39.36430358886719],
    [0.0, 0.0, 0.0, 1.0]
],
  "dcmmeta_reorient_transform": [
    [0.0, -1.0, 0.0, 103.0],
    [1.0, 0.0, 0.0, 0.0],
    [0.0, 0.0, 1.0, 0.0],
    [0.0, 0.0, 0.0, 1.0]
],
  "dcmmeta_shape": [104, 104, 66, 192],
  "dcmmeta_slice_dim": 2,
  "dcmmeta_version": 0.6,
  "global": {
    "const": {
      "AccessionNumber": "k3symgqr",
      "AcquisitionMatrix": [104, 0, 0, 104],
      "AngioFlag": "N",
      "BitsAllocated": 16,
      "BitsStored": 16,
      "BodyPartExamined": "BRAIN",
      "Columns": 936,
      "EchoNumbers": 1,
      "EchoTime": 37.0,
      "EchoTrainLength": 104,
      "FlipAngle": 68.0,
      "HighBit": 15,
      "ImageOrientationPatient": [0.99970713539921, -0.0055168749925, 0.02356284198106, 0.00663041340148, 0.99885186242049, -0.0474446472982],
      "ImagePositionPatient": [-945.86185514515, -953.66992111165, -9.721043522725],
      "ImageType": [
        "ORIGINAL",
        "PRIMARY",
        "M",
        "MB",
        "ND",
        "MOSAIC"
],
      "ImagedNucleus": "1H",
      "ImagingFrequency": 123.190744,
      "InPlanePhaseEncodingDirection": "COL",
      "MRAcquisitionType": "2D",
      "MagneticFieldStrength": 3.0,
      "Manufacturer": "SIEMENS",
      "ManufacturerModelName": "Prisma",
      "Modality": "MR",
      "NumberOfAverages": 1.0,
      "NumberOfPhaseEncodingSteps": 104,
      "PercentPhaseFieldOfView": 100.0,
      "PercentSampling": 100.0,
      "PerformedProcedureStepStartTime": "145701.224000",
      "PhotometricInterpretation": "MONOCHROME2",
      "PixelBandwidth": 2290.0,
      "PixelRepresentation": 0,
      "PixelSpacing": [2.0, 2.0],
      "ProtocolName": "cmrr_mbepi_s6_2mm_66sl_PA_task-prf",
      "RepetitionTime": 1000.0,
      "Rows": 936,
      "SAR": 0.07382071098763,
      "SamplesPerPixel": 1,
      "ScanOptions": "FS",
      "ScanningSequence": "EP",
      "SequenceName": "epfid2d1_104",
      "SequenceVariant": [
        "SK",
        "SS"
],
      "SeriesDescription": "cmrr_mbepi_s6_2mm_66sl_PA_task-prf",
      "SeriesNumber": 12,
      "SeriesTime": "153319.207000",
      "SliceLocation": -33.075640514039,
      "SliceThickness": 2.0,
      "SmallestImagePixelValue": 0,
      "SoftwareVersions": "syngo MR E11",
      "SpacingBetweenSlices": 2.0000000281142,
      "SpecificCharacterSet": "ISO_IR 100",
      "StudyID": "1",
      "StudyTime": "145701.175000",
      "TransmitCoilName": "Body",
      "VariableFlipAngleFlag": "N",
      "WindowCenterWidthExplanation": "Algo1",
      "dBdt": 0.0},
    "slices": {}
  },
  "time": {
    "samples": {
      "AcquisitionNumber": [1, 2, 3, 4, 5, 6, 7, 8, 9, 10, 11, 12, 13, 14, 15, 16, 17, 18, 19, 20, 21, 22, 23, 24, 25, 26, 27, 28, 29, 30, 31, 32, 33, 34, 35, 36, 37, 38, 39, 40, 41, 42, 43, 44, 45, 46, 47, 48, 49, 50, 51, 52, 53, 54, 55, 56, 57, 58, 59, 60, 61, 62, 63, 64, 65, 66, 67, 68, 69, 70, 71, 72, 73, 74, 75, 76, 77, 78, 79, 80, 81, 82, 83, 84, 85, 86, 87, 88, 89, 90, 91, 92, 93, 94, 95, 96, 97, 98, 99, 100, 101, 102, 103, 104, 105, 106, 107, 108, 109, 110, 111, 112, 113, 114, 115, 116, 117, 118, 119, 120, 121, 122, 123, 124, 125, 126, 127, 128, 129, 130, 131, 132, 133, 134, 135, 136, 137, 138, 139, 140, 141, 142, 143, 144, 145, 146, 147, 148, 149, 150, 151, 152, 153, 154, 155, 156, 157, 158, 159, 160, 161, 162, 163, 164, 165, 166, 167, 168, 169, 170, 171, 172, 173, 174, 175, 176, 177, 178, 179, 180, 181, 182, 183, 184, 185, 186, 187, 188, 189, 190, 191, 192],
      "AcquisitionTime": ["153156.445000", "153157.445000", "153158.445000", "153159.445000", "153200.445000", "153201.445000", "153202.445000", "153203.445000", "153204.445000", "153205.445000", "153206.445000", "153207.445000", "153208.445000", "153209.445000", "153210.445000", "153211.445000", "153212.445000", "153213.445000", "153214.445000", "153215.445000", "153216.445000", "153217.445000", "153218.445000", "153219.445000", "153220.445000", "153221.445000", "153222.445000", "153223.445000", "153224.445000", "153225.445000", "153226.445000", "153227.445000", "153228.445000", "153229.445000", "153230.445000", "153231.445000", "153232.445000", "153233.445000", "153234.445000", "153235.445000", "153236.445000", "153237.445000", "153238.445000", "153239.445000", "153240.445000", "153241.445000", "153242.445000", "153243.445000", "153244.445000", "153245.445000", "153246.445000", "153247.445000", "153248.445000", "153249.445000", "153250.445000", "153251.445000", "153252.445000", "153253.445000", "153254.445000", "153255.445000", "153256.445000", "153257.445000", "153258.445000", "153259.445000", "153300.445000", "153301.445000", "153302.445000", "153303.445000", "153304.445000", "153305.445000", "153306.445000", "153307.445000", "153308.445000", "153309.445000", "153310.445000", "153311.445000", "153312.445000", "153313.445000", "153314.445000", "153315.445000", "153316.445000", "153317.445000", "153318.445000", "153319.445000", "153320.445000", "153321.445000", "153322.445000", "153323.445000", "153324.445000", "153325.445000", "153326.445000", "153327.445000", "153328.445000", "153329.445000", "153330.445000", "153331.445000", "153332.445000", "153333.445000", "153334.445000", "153335.445000", "153336.445000", "153337.445000", "153338.445000", "153339.445000", "153340.445000", "153341.445000", "153342.445000", "153343.445000", "153344.445000", "153345.445000", "153346.445000", "153347.445000", "153348.445000", "153349.445000", "153350.445000", "153351.445000", "153352.445000", "153353.445000", "153354.445000", "153355.445000", "153356.445000", "153357.445000", "153358.445000", "153359.445000", "153400.445000", "153401.445000", "153402.445000", "153403.445000", "153404.445000", "153405.445000", "153406.445000", "153407.445000", "153408.445000", "153409.445000", "153410.445000", "153411.445000", "153412.445000", "153413.445000", "153414.445000", "153415.445000", "153416.445000", "153417.445000", "153418.445000", "153419.445000", "153420.445000", "153421.445000", "153422.445000", "153423.445000", "153424.445000", "153425.445000", "153426.445000", "153427.445000", "153428.445000", "153429.445000", "153430.445000", "153431.445000", "153432.445000", "153433.445000", "153434.445000", "153435.445000", "153436.445000", "153437.445000", "153438.445000", "153439.445000", "153440.445000", "153441.445000", "153442.445000", "153443.445000", "153444.445000", "153445.445000", "153446.445000", "153447.445000", "153448.445000", "153449.445000", "153450.445000", "153451.445000", "153452.445000", "153453.445000", "153454.445000", "153455.445000", "153456.445000", "153457.445000", "153458.445000", "153459.445000", "153500.445000", "153501.445000", "153502.445000", "153503.445000", "153504.445000", "153505.445000", "153506.445000", "153507.445000"],
      "ContentTime": ["153319.210000", "153319.213000", "153319.216000", "153319.219000", "153319.222000", "153319.225000", "153319.227000", "153319.230000", "153319.233000", "153319.236000", "153319.239000", "153319.242000", "153319.245000", "153319.248000", "153319.251000", "153319.261000", "153319.264000", "153319.267000", "153319.269000", "153319.272000", "153319.275000", "153319.278000", "153319.281000", "153319.284000", "153319.287000", "153319.290000", "153319.293000", "153319.296000", "153319.298000", "153319.301000", "153319.304000", "153319.307000", "153319.310000", "153319.313000", "153319.316000", "153319.319000", "153319.326000", "153339.165000", "153339.168000", "153339.171000", "153339.174000", "153339.177000", "153339.180000", "153339.183000", "153339.185000", "153339.189000", "153339.192000", "153339.195000", "153339.199000", "153339.203000", "153339.206000", "153339.209000", "153339.212000", "153339.215000", "153339.218000", "153339.221000", "153339.224000", "153339.227000", "153339.229000", "153339.232000", "153339.241000", "153339.244000", "153339.247000", "153339.250000", "153339.253000", "153359.165000", "153359.168000", "153359.171000", "153359.174000", "153359.177000", "153359.180000", "153359.183000", "153359.186000", "153359.188000", "153359.191000", "153359.194000", "153359.197000", "153359.200000", "153359.203000", "153359.206000", "153359.209000", "153359.212000", "153359.215000", "153359.217000", "153359.220000", "153359.223000", "153359.226000", "153359.229000", "153359.232000", "153359.235000", "153359.238000", "153359.241000", "153359.244000", "153419.165000", "153419.168000", "153419.171000", "153419.174000", "153419.177000", "153419.180000", "153419.183000", "153419.185000", "153419.188000", "153419.191000", "153419.194000", "153419.197000", "153419.200000", "153419.203000", "153419.206000", "153419.209000", "153419.212000", "153419.215000", "153419.218000", "153419.221000", "153419.224000", "153419.227000", "153419.229000", "153419.233000", "153419.235000", "153419.243000", "153419.246000", "153419.249000", "153419.252000", "153439.165000", "153439.168000", "153439.171000", "153439.174000", "153439.177000", "153439.180000", "153439.182000", "153439.185000", "153439.188000", "153439.191000", "153439.194000", "153439.197000", "153439.200000", "153439.203000", "153439.206000", "153439.209000", "153439.212000", "153439.215000", "153439.217000", "153439.220000", "153439.223000", "153439.226000", "153439.229000", "153439.232000", "153439.235000", "153439.238000", "153439.241000", "153439.244000", "153459.165000", "153459.168000", "153459.171000", "153459.174000", "153459.177000", "153459.180000", "153459.182000", "153459.185000", "153459.188000", "153459.191000", "153459.194000", "153459.197000", "153459.200000", "153459.203000", "153459.211000", "153459.214000", "153459.217000", "153459.219000", "153459.222000", "153459.225000", "153459.228000", "153459.231000", "153459.234000", "153459.237000", "153459.240000", "153459.243000", "153459.246000", "153459.248000", "153509.003000", "153509.007000", "153509.010000", "153509.013000", "153509.016000", "153509.019000", "153509.022000", "153509.024000", "153509.027000", "153509.030000", "153509.033000", "153509.036000", "153509.039000", "153509.042000"],
      "InstanceCreationTime": ["153319.210000", "153319.213000", "153319.216000", "153319.219000", "153319.222000", "153319.225000", "153319.227000", "153319.230000", "153319.233000", "153319.236000", "153319.239000", "153319.242000", "153319.245000", "153319.248000", "153319.251000", "153319.261000", "153319.264000", "153319.267000", "153319.269000", "153319.272000", "153319.275000", "153319.278000", "153319.281000", "153319.284000", "153319.287000", "153319.290000", "153319.293000", "153319.296000", "153319.298000", "153319.301000", "153319.304000", "153319.307000", "153319.310000", "153319.313000", "153319.316000", "153319.319000", "153319.326000", "153339.165000", "153339.168000", "153339.171000", "153339.174000", "153339.177000", "153339.180000", "153339.183000", "153339.185000", "153339.189000", "153339.192000", "153339.195000", "153339.199000", "153339.203000", "153339.206000", "153339.209000", "153339.212000", "153339.215000", "153339.218000", "153339.221000", "153339.224000", "153339.227000", "153339.229000", "153339.232000", "153339.241000", "153339.244000", "153339.247000", "153339.250000", "153339.253000", "153359.165000", "153359.168000", "153359.171000", "153359.174000", "153359.177000", "153359.180000", "153359.183000", "153359.186000", "153359.188000", "153359.191000", "153359.194000", "153359.197000", "153359.200000", "153359.203000", "153359.206000", "153359.209000", "153359.212000", "153359.215000", "153359.217000", "153359.220000", "153359.223000", "153359.226000", "153359.229000", "153359.232000", "153359.235000", "153359.238000", "153359.241000", "153359.244000", "153419.165000", "153419.168000", "153419.171000", "153419.174000", "153419.177000", "153419.180000", "153419.183000", "153419.185000", "153419.188000", "153419.191000", "153419.194000", "153419.197000", "153419.200000", "153419.203000", "153419.206000", "153419.209000", "153419.212000", "153419.215000", "153419.218000", "153419.221000", "153419.224000", "153419.227000", "153419.229000", "153419.233000", "153419.235000", "153419.243000", "153419.246000", "153419.249000", "153419.252000", "153439.165000", "153439.168000", "153439.171000", "153439.174000", "153439.177000", "153439.180000", "153439.182000", "153439.185000", "153439.188000", "153439.191000", "153439.194000", "153439.197000", "153439.200000", "153439.203000", "153439.206000", "153439.209000", "153439.212000", "153439.215000", "153439.217000", "153439.220000", "153439.223000", "153439.226000", "153439.229000", "153439.232000", "153439.235000", "153439.238000", "153439.241000", "153439.244000", "153459.165000", "153459.168000", "153459.171000", "153459.174000", "153459.177000", "153459.180000", "153459.182000", "153459.185000", "153459.188000", "153459.191000", "153459.194000", "153459.197000", "153459.200000", "153459.203000", "153459.211000", "153459.214000", "153459.217000", "153459.219000", "153459.222000", "153459.225000", "153459.228000", "153459.231000", "153459.234000", "153459.237000", "153459.240000", "153459.243000", "153459.246000", "153459.248000", "153509.003000", "153509.007000", "153509.010000", "153509.013000", "153509.016000", "153509.019000", "153509.022000", "153509.024000", "153509.027000", "153509.030000", "153509.033000", "153509.036000", "153509.039000", "153509.042000"],
      "InstanceNumber": [1, 2, 3, 4, 5, 6, 7, 8, 9, 10, 11, 12, 13, 14, 15, 16, 17, 18, 19, 20, 21, 22, 23, 24, 25, 26, 27, 28, 29, 30, 31, 32, 33, 34, 35, 36, 37, 38, 39, 40, 41, 42, 43, 44, 45, 46, 47, 48, 49, 50, 51, 52, 53, 54, 55, 56, 57, 58, 59, 60, 61, 62, 63, 64, 65, 66, 67, 68, 69, 70, 71, 72, 73, 74, 75, 76, 77, 78, 79, 80, 81, 82, 83, 84, 85, 86, 87, 88, 89, 90, 91, 92, 93, 94, 95, 96, 97, 98, 99, 100, 101, 102, 103, 104, 105, 106, 107, 108, 109, 110, 111, 112, 113, 114, 115, 116, 117, 118, 119, 120, 121, 122, 123, 124, 125, 126, 127, 128, 129, 130, 131, 132, 133, 134, 135, 136, 137, 138, 139, 140, 141, 142, 143, 144, 145, 146, 147, 148, 149, 150, 151, 152, 153, 154, 155, 156, 157, 158, 159, 160, 161, 162, 163, 164, 165, 166, 167, 168, 169, 170, 171, 172, 173, 174, 175, 176, 177, 178, 179, 180, 181, 182, 183, 184, 185, 186, 187, 188, 189, 190, 191, 192],
      "LargestImagePixelValue": [45136, 44332, 43192, 42468, 42094, 42192, 42529, 42242, 42517, 42241, 42247, 42025, 41855, 41950, 42129, 42006, 42025, 42142, 41627, 41630, 41746, 41785, 41491, 41708, 41394, 41395, 41591, 41660, 41713, 41698, 41659, 41715, 41793, 41645, 41976, 42168, 42602, 42144, 41990, 41884, 42054, 42219, 41717, 42113, 42496, 42130, 42051, 42597, 42454, 42191, 42464, 42169, 41592, 42128, 41817, 41949, 42099, 42241, 42155, 42431, 42679, 41922, 41867, 41843, 41746, 42126, 42566, 42101, 42387, 42172, 42174, 42159, 42368, 42200, 41945, 42355, 42343, 41679, 41789, 42317, 42375, 42630, 42482, 42610, 42183, 41888, 41834, 41457, 41746, 42155, 41993, 42372, 42650, 42380, 42130, 41992, 41921, 42158, 41962, 42303, 42296, 42154, 42320, 41870, 42120, 41979, 42333, 41864, 41935, 42310, 42186, 42227, 42599, 42115, 42204, 41771, 42297, 41773, 41996, 42175, 42023, 42256, 42288, 42096, 42193, 42710, 42110, 41930, 42065, 42128, 42041, 41705, 41807, 41886, 42507, 42439, 42257, 42227, 41784, 41988, 41978, 42038, 41869, 41929, 41869, 42418, 42296, 42275, 42146, 42051, 42112, 42502, 42053, 41753, 42163, 42642, 42020, 41791, 42262, 42195, 42020, 42329, 42260, 42388, 42029, 42338, 42108, 42699, 42000, 41981, 41812, 41550, 41948, 42037, 42066, 42100, 42335, 42323, 42114, 42278, 41989, 42078, 42032, 41761, 42095, 42119, 42282, 41966, 41949, 41810, 41950, 42318],
      "WindowCenter": [10653.0, 10608.0, 10575.0, 10566.0, 10568.0, 10585.0, 10605.0, 10600.0, 10593.0, 10584.0, 10576.0, 10562.0, 10552.0, 10551.0, 10559.0, 10560.0, 10558.0, 10557.0, 10554.0, 10552.0, 10544.0, 10547.0, 10541.0, 10533.0, 10535.0, 10537.0, 10542.0, 10537.0, 10537.0, 10535.0, 10535.0, 10533.0, 10546.0, 10559.0, 10575.0, 10583.0, 10588.0, 10576.0, 10569.0, 10560.0, 10558.0, 10564.0, 10568.0, 10579.0, 10588.0, 10591.0, 10591.0, 10590.0, 10583.0, 10574.0, 10571.0, 10570.0, 10566.0, 10578.0, 10588.0, 10597.0, 10604.0, 10608.0, 10613.0, 10611.0, 10605.0, 10588.0, 10573.0, 10565.0, 10557.0, 10567.0, 10579.0, 10582.0, 10583.0, 10584.0, 10584.0, 10580.0, 10573.0, 10563.0, 10548.0, 10545.0, 10543.0, 10539.0, 10545.0, 10552.0, 10562.0, 10582.0, 10585.0, 10580.0, 10571.0, 10554.0, 10538.0, 10531.0, 10537.0, 10543.0, 10551.0, 10565.0, 10573.0, 10562.0, 10562.0, 10562.0, 10556.0, 10556.0, 10557.0, 10553.0, 10554.0, 10560.0, 10562.0, 10557.0, 10561.0, 10565.0, 10577.0, 10581.0, 10583.0, 10593.0, 10589.0, 10598.0, 10610.0, 10614.0, 10615.0, 10609.0, 10605.0, 10591.0, 10576.0, 10573.0, 10566.0, 10564.0, 10570.0, 10573.0, 10575.0, 10578.0, 10574.0, 10576.0, 10574.0, 10573.0, 10567.0, 10567.0, 10566.0, 10565.0, 10575.0, 10577.0, 10577.0, 10580.0, 10582.0, 10581.0, 10581.0, 10576.0, 10568.0, 10558.0, 10554.0, 10551.0, 10540.0, 10543.0, 10551.0, 10556.0, 10569.0, 10570.0, 10566.0, 10565.0, 10557.0, 10555.0, 10553.0, 10547.0, 10553.0, 10559.0, 10568.0, 10577.0, 10592.0, 10594.0, 10591.0, 10597.0, 10597.0, 10604.0, 10594.0, 10590.0, 10576.0, 10561.0, 10563.0, 10565.0, 10589.0, 10613.0, 10637.0, 10639.0, 10627.0, 10605.0, 10593.0, 10576.0, 10564.0, 10559.0, 10562.0, 10567.0, 10570.0, 10565.0, 10563.0, 10563.0, 10558.0, 10556.0],
      "WindowWidth": [22993.0, 22863.0, 22773.0, 22744.0, 22750.0, 22791.0, 22836.0, 22825.0, 22807.0, 22786.0, 22763.0, 22728.0, 22702.0, 22699.0, 22720.0, 22721.0, 22719.0, 22716.0, 22711.0, 22703.0, 22686.0, 22689.0, 22673.0, 22656.0, 22663.0, 22667.0, 22678.0, 22670.0, 22669.0, 22662.0, 22662.0, 22658.0, 22688.0, 22724.0, 22765.0, 22785.0, 22792.0, 22766.0, 22748.0, 22724.0, 22718.0, 22732.0, 22743.0, 22772.0, 22796.0, 22803.0, 22802.0, 22797.0, 22781.0, 22756.0, 22747.0, 22746.0, 22739.0, 22770.0, 22793.0, 22816.0, 22837.0, 22848.0, 22861.0, 22853.0, 22835.0, 22794.0, 22756.0, 22736.0, 22718.0, 22741.0, 22769.0, 22778.0, 22782.0, 22783.0, 22783.0, 22778.0, 22761.0, 22735.0, 22698.0, 22686.0, 22682.0, 22675.0, 22689.0, 22706.0, 22733.0, 22779.0, 22787.0, 22774.0, 22747.0, 22703.0, 22667.0, 22651.0, 22664.0, 22680.0, 22701.0, 22736.0, 22752.0, 22728.0, 22727.0, 22727.0, 22714.0, 22714.0, 22715.0, 22705.0, 22707.0, 22720.0, 22726.0, 22715.0, 22723.0, 22734.0, 22763.0, 22775.0, 22782.0, 22802.0, 22794.0, 22817.0, 22847.0, 22857.0, 22858.0, 22845.0, 22833.0, 22796.0, 22762.0, 22752.0, 22734.0, 22727.0, 22741.0, 22750.0, 22758.0, 22763.0, 22759.0, 22760.0, 22755.0, 22751.0, 22739.0, 22737.0, 22735.0, 22732.0, 22754.0, 22762.0, 22764.0, 22773.0, 22777.0, 22774.0, 22772.0, 22761.0, 22742.0, 22716.0, 22703.0, 22693.0, 22668.0, 22674.0, 22696.0, 22712.0, 22741.0, 22744.0, 22736.0, 22732.0, 22712.0, 22707.0, 22701.0, 22687.0, 22701.0, 22717.0, 22740.0, 22764.0, 22799.0, 22805.0, 22800.0, 22813.0, 22814.0, 22829.0, 22808.0, 22796.0, 22763.0, 22725.0, 22725.0, 22733.0, 22796.0, 22859.0, 22916.0, 22923.0, 22892.0, 22836.0, 22802.0, 22758.0, 22727.0, 22716.0, 22723.0, 22734.0, 22741.0, 22732.0, 22727.0, 22727.0, 22715.0, 22710.0]
    },
    "slices": {}
  },
  "NumberOfVolumes": 192
}