{
  "AcquisitionMatrixPE": 104,
  "AcquisitionNumber": 1,
  "AcquisitionTime": "12:07:16.562500",
  "BandwidthPerPixelPhaseEncode": 16.578,
  "BaseResolution": 104,
  "BodyPartExamined": "BRAIN",
  "ConsistencyInfo": "N4_VE11C_LATEST_20160120",
  "ConversionSoftware": "dcm2niix",
  "ConversionSoftwareVersion": "v1.0.20190902",
  "DerivedVendorReportedEchoSpacing": 0.000580009,
  "DeviceSerialNumber": "166018",
  "DwellTime": 2.1e-06,
  "EchoTime": 0.037,
  "EchoTrainLength": 104,
  "EffectiveEchoSpacing": 0.000580009,
  "FlipAngle": 68,
  "ImageComments": "Unaliased_MB6_PE3_LB",
  "ImageOrientationPatientDICOM": [0.994698, -0.0553282, 0.0866878, 0.0641499, 0.99266, -0.102526],
  "ImageType": [
    "ORIGINAL",
    "PRIMARY",
    "M",
    "MB",
    "ND",
    "MOSAIC"
],
  "ImagingFrequency": 123.187,
  "InPlanePhaseEncodingDirectionDICOM": "COL",
  "InstitutionAddress": "Washington_Place_6_NYC_NYC_US_10003",
  "InstitutionName": "NYU_Center_for_Brain_Imaging",
  "InstitutionalDepartmentName": "Department",
  "MRAcquisitionType": "2D",
  "MagneticFieldStrength": 3,
  "Manufacturer": "Siemens",
  "ManufacturersModelName": "Prisma",
  "Modality": "MR",
  "MultibandAccelerationFactor": 6,
  "PartialFourier": 1,
  "PatientPosition": "HFS",
  "PercentPhaseFOV": 100,
  "PhaseEncodingDirection": "j",
  "PhaseEncodingSteps": 104,
  "PhaseResolution": 1,
  "PixelBandwidth": 2290,
  "ProcedureStepDescription": "Investigators_Winawer",
  "ProtocolName": "cmrr_mbepi_s6_2mm_66sl_PA_TR1.0",
  "PulseSequenceDetails": "%CustomerSeq%_cmrr_mbep2d_bold",
  "ReceiveCoilActiveElements": "HC1-7",
  "ReceiveCoilName": "HeadNeck_64",
  "ReconMatrixPE": 104,
  "RepetitionTime": 1,
  "SAR": 0.0783302,
  "ScanOptions": "FS",
  "ScanningSequence": "EP",
  "SequenceName": "epfid2d1_104",
  "SequenceVariant": "SK_SS",
  "SeriesDescription": "cmrr_mbepi_s6_2mm_66sl_PA_TR1.0",
  "SeriesNumber": 30,
  "ShimSetting": [289, -12569, -8490, 291, -7, 19, -115, -20],
  "SliceThickness": 2,
  "SliceTiming": [0, 0.535, 0.09, 0.625, 0.1775, 0.7125, 0.2675, 0.8025, 0.3575, 0.89, 0.445, 0, 0.535, 0.09, 0.625, 0.1775, 0.7125, 0.2675, 0.8025, 0.3575, 0.89, 0.445, 0, 0.535, 0.09, 0.625, 0.1775, 0.7125, 0.2675, 0.8025, 0.3575, 0.89, 0.445, 0, 0.535, 0.09, 0.625, 0.1775, 0.7125, 0.2675, 0.8025, 0.3575, 0.89, 0.445, 0, 0.535, 0.09, 0.625, 0.1775, 0.7125, 0.2675, 0.8025, 0.3575, 0.89, 0.445, 0, 0.535, 0.09, 0.625, 0.1775, 0.7125, 0.2675, 0.8025, 0.3575, 0.89, 0.445],
  "SoftwareVersions": "syngo_MR_E11",
  "SpacingBetweenSlices": 2,
  "StationName": "AWP166018",
  "TaskName": "prf",
  "TotalReadoutTime": 0.0597409,
  "TxRefAmp": 208.721,
  "WipMemBlock": "a466239c-b909-428d-8fb1-260c82f4a55c||Sequence: ve11c/master r/ab69a6c; Apr 19 2017 09:47:47 by eja",
  "dcmmeta_affine": [
    [-1.9893958568572998, 0.12829983234405518, 0.16075778007507324, 101.37809753417969],
    [0.11065631359815598, 1.9853192567825317, -0.21508699655532837, -65.62957763671875],
    [0.17337557673454285, 0.20505216717720032, 1.9818916320800781, -67.0409164428711],
    [0.0, 0.0, 0.0, 1.0]
],
  "dcmmeta_reorient_transform": [
    [0.0, -1.0, 0.0, 103.0],
    [1.0, 0.0, 0.0, 0.0],
    [0.0, 0.0, 1.0, 0.0],
    [0.0, 0.0, 0.0, 1.0]
],
  "dcmmeta_shape": [104, 104, 66, 192],
  "dcmmeta_slice_dim": 2,
  "dcmmeta_version": 0.6,
  "global": {
    "const": {
      "AccessionNumber": "j66ik478",
      "AcquisitionMatrix": [104, 0, 0, 104],
      "AngioFlag": "N",
      "BitsAllocated": 16,
      "BitsStored": 16,
      "BodyPartExamined": "BRAIN",
      "Columns": 936,
      "EchoNumbers": 1,
      "EchoTime": 37.0,
      "EchoTrainLength": 104,
      "FlipAngle": 68.0,
      "HighBit": 15,
      "ImageOrientationPatient": [0.99469795526587, -0.0553281562539, 0.08668778988672, 0.06414991394605, 0.99265965485144, -0.1025260853195],
      "ImagePositionPatient": [-995.55441012872, -918.71811429132, -32.743077795519],
      "ImageType": [
        "ORIGINAL",
        "PRIMARY",
        "M",
        "MB",
        "ND",
        "MOSAIC"
],
      "ImagedNucleus": "1H",
      "ImagingFrequency": 123.187278,
      "InPlanePhaseEncodingDirection": "COL",
      "MRAcquisitionType": "2D",
      "MagneticFieldStrength": 3.0,
      "Manufacturer": "SIEMENS",
      "ManufacturerModelName": "Prisma",
      "Modality": "MR",
      "NumberOfAverages": 1.0,
      "NumberOfPhaseEncodingSteps": 104,
      "PercentPhaseFieldOfView": 100.0,
      "PercentSampling": 100.0,
      "PerformedProcedureStepStartTime": "111750.314000",
      "PhotometricInterpretation": "MONOCHROME2",
      "PixelBandwidth": 2290.0,
      "PixelRepresentation": 0,
      "PixelSpacing": [2.0, 2.0],
      "ProtocolName": "cmrr_mbepi_s6_2mm_66sl_PA_TR1.0",
      "RepetitionTime": 1000.0,
      "Rows": 936,
      "SAR": 0.07833016078607,
      "SamplesPerPixel": 1,
      "ScanOptions": "FS",
      "ScanningSequence": "EP",
      "SequenceName": "epfid2d1_104",
      "SequenceVariant": [
        "SK",
        "SS"
],
      "SeriesDescription": "cmrr_mbepi_s6_2mm_66sl_PA_TR1.0",
      "SeriesNumber": 30,
      "SeriesTime": "120842.299000",
      "SliceLocation": -51.227218599238,
      "SliceThickness": 2.0,
      "SmallestImagePixelValue": 0,
      "SoftwareVersions": "syngo MR E11",
      "SpacingBetweenSlices": 1.9999999826765,
      "SpecificCharacterSet": "ISO_IR 100",
      "StudyID": "2",
      "StudyTime": "111750.025000",
      "TransmitCoilName": "Body",
      "VariableFlipAngleFlag": "N",
      "WindowCenterWidthExplanation": "Algo1",
      "dBdt": 0.0},
    "slices": {}
  },
  "time": {
    "samples": {
      "AcquisitionNumber": [1, 2, 3, 4, 5, 6, 7, 8, 9, 10, 11, 12, 13, 14, 15, 16, 17, 18, 19, 20, 21, 22, 23, 24, 25, 26, 27, 28, 29, 30, 31, 32, 33, 34, 35, 36, 37, 38, 39, 40, 41, 42, 43, 44, 45, 46, 47, 48, 49, 50, 51, 52, 53, 54, 55, 56, 57, 58, 59, 60, 61, 62, 63, 64, 65, 66, 67, 68, 69, 70, 71, 72, 73, 74, 75, 76, 77, 78, 79, 80, 81, 82, 83, 84, 85, 86, 87, 88, 89, 90, 91, 92, 93, 94, 95, 96, 97, 98, 99, 100, 101, 102, 103, 104, 105, 106, 107, 108, 109, 110, 111, 112, 113, 114, 115, 116, 117, 118, 119, 120, 121, 122, 123, 124, 125, 126, 127, 128, 129, 130, 131, 132, 133, 134, 135, 136, 137, 138, 139, 140, 141, 142, 143, 144, 145, 146, 147, 148, 149, 150, 151, 152, 153, 154, 155, 156, 157, 158, 159, 160, 161, 162, 163, 164, 165, 166, 167, 168, 169, 170, 171, 172, 173, 174, 175, 176, 177, 178, 179, 180, 181, 182, 183, 184, 185, 186, 187, 188, 189, 190, 191, 192],
      "AcquisitionTime": ["120716.562500", "120717.562500", "120718.562500", "120719.562500", "120720.562500", "120721.562500", "120722.562500", "120723.562500", "120724.562500", "120725.562500", "120726.562500", "120727.562500", "120728.562500", "120729.562500", "120730.562500", "120731.562500", "120732.562500", "120733.562500", "120734.562500", "120735.562500", "120736.562500", "120737.562500", "120738.562500", "120739.562500", "120740.562500", "120741.562500", "120742.562500", "120743.562500", "120744.562500", "120745.562500", "120746.562500", "120747.562500", "120748.562500", "120749.562500", "120750.562500", "120751.562500", "120752.562500", "120753.562500", "120754.562500", "120755.562500", "120756.562500", "120757.562500", "120758.562500", "120759.562500", "120800.562500", "120801.562500", "120802.562500", "120803.562500", "120804.562500", "120805.562500", "120806.562500", "120807.562500", "120808.562500", "120809.562500", "120810.562500", "120811.562500", "120812.562500", "120813.562500", "120814.562500", "120815.562500", "120816.562500", "120817.562500", "120818.562500", "120819.562500", "120820.562500", "120821.562500", "120822.562500", "120823.562500", "120824.562500", "120825.562500", "120826.562500", "120827.562500", "120828.562500", "120829.562500", "120830.562500", "120831.562500", "120832.562500", "120833.562500", "120834.562500", "120835.562500", "120836.562500", "120837.562500", "120838.562500", "120839.562500", "120840.562500", "120841.562500", "120842.562500", "120843.562500", "120844.562500", "120845.562500", "120846.562500", "120847.562500", "120848.562500", "120849.562500", "120850.562500", "120851.562500", "120852.562500", "120853.562500", "120854.562500", "120855.562500", "120856.562500", "120857.562500", "120858.562500", "120859.562500", "120900.562500", "120901.562500", "120902.562500", "120903.562500", "120904.562500", "120905.562500", "120906.562500", "120907.562500", "120908.562500", "120909.562500", "120910.562500", "120911.562500", "120912.562500", "120913.562500", "120914.562500", "120915.562500", "120916.562500", "120917.562500", "120918.562500", "120919.562500", "120920.562500", "120921.562500", "120922.562500", "120923.562500", "120924.562500", "120925.562500", "120926.562500", "120927.562500", "120928.562500", "120929.562500", "120930.562500", "120931.562500", "120932.562500", "120933.562500", "120934.562500", "120935.562500", "120936.562500", "120937.562500", "120938.562500", "120939.562500", "120940.562500", "120941.562500", "120942.562500", "120943.562500", "120944.562500", "120945.562500", "120946.562500", "120947.562500", "120948.562500", "120949.562500", "120950.562500", "120951.562500", "120952.562500", "120953.562500", "120954.562500", "120955.562500", "120956.562500", "120957.562500", "120958.562500", "120959.562500", "121000.562500", "121001.562500", "121002.562500", "121003.562500", "121004.562500", "121005.562500", "121006.562500", "121007.562500", "121008.562500", "121009.562500", "121010.562500", "121011.562500", "121012.562500", "121013.562500", "121014.562500", "121015.562500", "121016.562500", "121017.562500", "121018.562500", "121019.562500", "121020.562500", "121021.562500", "121022.562500", "121023.562500", "121024.562500", "121025.562500", "121026.562500", "121027.562500"],
      "ContentTime": ["120842.302000", "120842.305000", "120842.308000", "120842.312000", "120842.315000", "120842.318000", "120842.321000", "120842.324000", "120842.327000", "120842.330000", "120842.334000", "120842.337000", "120842.349000", "120842.352000", "120842.355000", "120842.359000", "120842.362000", "120842.365000", "120842.368000", "120842.378000", "120842.381000", "120842.384000", "120842.387000", "120842.390000", "120842.393000", "120842.396000", "120842.399000", "120842.402000", "120842.405000", "120842.408000", "120842.411000", "120842.414000", "120842.417000", "120842.420000", "120842.423000", "120842.426000", "120842.430000", "120842.433000", "120842.436000", "120842.439000", "120842.442000", "120902.195000", "120902.198000", "120902.201000", "120902.204000", "120902.207000", "120902.210000", "120902.215000", "120902.218000", "120902.221000", "120902.224000", "120902.227000", "120902.230000", "120902.233000", "120902.236000", "120902.239000", "120902.242000", "120902.245000", "120902.248000", "120902.251000", "120902.254000", "120902.257000", "120902.260000", "120902.263000", "120902.266000", "120902.269000", "120902.272000", "120902.275000", "120902.277000", "120902.280000", "120922.194000", "120922.202000", "120922.205000", "120922.208000", "120922.211000", "120922.214000", "120922.217000", "120922.220000", "120922.223000", "120922.226000", "120922.229000", "120922.232000", "120922.235000", "120922.238000", "120922.241000", "120922.244000", "120922.247000", "120922.250000", "120922.253000", "120922.256000", "120922.259000", "120922.262000", "120922.265000", "120922.268000", "120922.271000", "120922.274000", "120922.277000", "120922.280000", "120942.194000", "120942.197000", "120942.200000", "120942.204000", "120942.207000", "120942.209000", "120942.212000", "120942.215000", "120942.218000", "120942.221000", "120942.224000", "120942.227000", "120942.231000", "120942.234000", "120942.237000", "120942.240000", "120942.243000", "120942.246000", "120942.249000", "120942.252000", "120942.255000", "120942.258000", "120942.260000", "120942.263000", "120942.266000", "120942.284000", "120942.287000", "120942.290000", "121002.195000", "121002.198000", "121002.201000", "121002.204000", "121002.207000", "121002.210000", "121002.213000", "121002.216000", "121002.219000", "121002.222000", "121002.225000", "121002.228000", "121002.231000", "121002.234000", "121002.237000", "121002.240000", "121002.243000", "121002.246000", "121002.249000", "121002.252000", "121002.255000", "121002.258000", "121002.261000", "121002.264000", "121002.267000", "121002.270000", "121002.273000", "121002.276000", "121022.195000", "121022.198000", "121022.201000", "121022.204000", "121022.207000", "121022.210000", "121022.214000", "121022.217000", "121022.220000", "121022.222000", "121022.225000", "121022.228000", "121022.231000", "121022.234000", "121022.238000", "121022.241000", "121022.244000", "121022.247000", "121022.250000", "121022.253000", "121022.256000", "121022.259000", "121022.262000", "121022.265000", "121022.268000", "121022.271000", "121022.274000", "121022.277000", "121029.584000", "121029.588000", "121029.591000", "121029.594000", "121029.598000", "121029.601000", "121029.604000", "121029.607000", "121029.610000", "121029.613000"],
      "InstanceCreationTime": ["120842.302000", "120842.305000", "120842.308000", "120842.312000", "120842.315000", "120842.318000", "120842.321000", "120842.324000", "120842.327000", "120842.330000", "120842.334000", "120842.337000", "120842.349000", "120842.352000", "120842.355000", "120842.359000", "120842.362000", "120842.365000", "120842.368000", "120842.378000", "120842.381000", "120842.384000", "120842.387000", "120842.390000", "120842.393000", "120842.396000", "120842.399000", "120842.402000", "120842.405000", "120842.408000", "120842.411000", "120842.414000", "120842.417000", "120842.420000", "120842.423000", "120842.426000", "120842.430000", "120842.433000", "120842.436000", "120842.439000", "120842.442000", "120902.195000", "120902.198000", "120902.201000", "120902.204000", "120902.207000", "120902.210000", "120902.215000", "120902.218000", "120902.221000", "120902.224000", "120902.227000", "120902.230000", "120902.233000", "120902.236000", "120902.239000", "120902.242000", "120902.245000", "120902.248000", "120902.251000", "120902.254000", "120902.257000", "120902.260000", "120902.263000", "120902.266000", "120902.269000", "120902.272000", "120902.275000", "120902.277000", "120902.280000", "120922.194000", "120922.202000", "120922.205000", "120922.208000", "120922.211000", "120922.214000", "120922.217000", "120922.220000", "120922.223000", "120922.226000", "120922.229000", "120922.232000", "120922.235000", "120922.238000", "120922.241000", "120922.244000", "120922.247000", "120922.250000", "120922.253000", "120922.256000", "120922.259000", "120922.262000", "120922.265000", "120922.268000", "120922.271000", "120922.274000", "120922.277000", "120922.280000", "120942.194000", "120942.197000", "120942.200000", "120942.204000", "120942.207000", "120942.209000", "120942.212000", "120942.215000", "120942.218000", "120942.221000", "120942.224000", "120942.227000", "120942.231000", "120942.234000", "120942.237000", "120942.240000", "120942.243000", "120942.246000", "120942.249000", "120942.252000", "120942.255000", "120942.258000", "120942.260000", "120942.263000", "120942.266000", "120942.284000", "120942.287000", "120942.290000", "121002.195000", "121002.198000", "121002.201000", "121002.204000", "121002.207000", "121002.210000", "121002.213000", "121002.216000", "121002.219000", "121002.222000", "121002.225000", "121002.228000", "121002.231000", "121002.234000", "121002.237000", "121002.240000", "121002.243000", "121002.246000", "121002.249000", "121002.252000", "121002.255000", "121002.258000", "121002.261000", "121002.264000", "121002.267000", "121002.270000", "121002.273000", "121002.276000", "121022.195000", "121022.198000", "121022.201000", "121022.204000", "121022.207000", "121022.210000", "121022.214000", "121022.217000", "121022.220000", "121022.222000", "121022.225000", "121022.228000", "121022.231000", "121022.234000", "121022.238000", "121022.241000", "121022.244000", "121022.247000", "121022.250000", "121022.253000", "121022.256000", "121022.259000", "121022.262000", "121022.265000", "121022.268000", "121022.271000", "121022.274000", "121022.277000", "121029.584000", "121029.588000", "121029.591000", "121029.594000", "121029.598000", "121029.601000", "121029.604000", "121029.607000", "121029.610000", "121029.613000"],
      "InstanceNumber": [1, 2, 3, 4, 5, 6, 7, 8, 9, 10, 11, 12, 13, 14, 15, 16, 17, 18, 19, 20, 21, 22, 23, 24, 25, 26, 27, 28, 29, 30, 31, 32, 33, 34, 35, 36, 37, 38, 39, 40, 41, 42, 43, 44, 45, 46, 47, 48, 49, 50, 51, 52, 53, 54, 55, 56, 57, 58, 59, 60, 61, 62, 63, 64, 65, 66, 67, 68, 69, 70, 71, 72, 73, 74, 75, 76, 77, 78, 79, 80, 81, 82, 83, 84, 85, 86, 87, 88, 89, 90, 91, 92, 93, 94, 95, 96, 97, 98, 99, 100, 101, 102, 103, 104, 105, 106, 107, 108, 109, 110, 111, 112, 113, 114, 115, 116, 117, 118, 119, 120, 121, 122, 123, 124, 125, 126, 127, 128, 129, 130, 131, 132, 133, 134, 135, 136, 137, 138, 139, 140, 141, 142, 143, 144, 145, 146, 147, 148, 149, 150, 151, 152, 153, 154, 155, 156, 157, 158, 159, 160, 161, 162, 163, 164, 165, 166, 167, 168, 169, 170, 171, 172, 173, 174, 175, 176, 177, 178, 179, 180, 181, 182, 183, 184, 185, 186, 187, 188, 189, 190, 191, 192],
      "LargestImagePixelValue": [37530, 36093, 34933, 36536, 37099, 37173, 38022, 34650, 35667, 34465, 34843, 34611, 35751, 34433, 34947, 34137, 35305, 35262, 34424, 33949, 35763, 35934, 38584, 33864, 36470, 35145, 34433, 34709, 38610, 34350, 34489, 34735, 35546, 36674, 34884, 34210, 39108, 45033, 34551, 38007, 35499, 37358, 38544, 36070, 35759, 33791, 34109, 35444, 33644, 33965, 34187, 36083, 35110, 37194, 36081, 34082, 33577, 33619, 33716, 33619, 34060, 34344, 34171, 33998, 34295, 36693, 38158, 36785, 37133, 39003, 35589, 34406, 33990, 33746, 33544, 34212, 33793, 35854, 33638, 33454, 37457, 33885, 36658, 36971, 35767, 38255, 35260, 35871, 36259, 35214, 36130, 35019, 35321, 37534, 35267, 35647, 33900, 34797, 38447, 40619, 39302, 37582, 36359, 36579, 35433, 35107, 33758, 32858, 33804, 36441, 33903, 33907, 35272, 33731, 33763, 35479, 33821, 34942, 34531, 34000, 33957, 36923, 36124, 37027, 36163, 37088, 34990, 37035, 36413, 36592, 36460, 36390, 33795, 36248, 35350, 34519, 36342, 34523, 33570, 36198, 34783, 33310, 39776, 33293, 33174, 35652, 33590, 34720, 34189, 33714, 34420, 34233, 33570, 35072, 34631, 35237, 36624, 39932, 35238, 37693, 33140, 32856, 36875, 34589, 33929, 36026, 34542, 34211, 34241, 34048, 37664, 38312, 36953, 36983, 34315, 33876, 37959, 33191, 34479, 38215, 36353, 36162, 35338, 35378, 36194, 36665, 34803, 38041, 38981, 38743, 35178, 37055],
      "WindowCenter": [9064.0, 9018.0, 8993.0, 9008.0, 9004.0, 8997.0, 8998.0, 8949.0, 8955.0, 8940.0, 8948.0, 8949.0, 8970.0, 8960.0, 8967.0, 8963.0, 8975.0, 8982.0, 8961.0, 8952.0, 8989.0, 9006.0, 9023.0, 8960.0, 8970.0, 8939.0, 8924.0, 8923.0, 8967.0, 8915.0, 8922.0, 8930.0, 8953.0, 8983.0, 8959.0, 8928.0, 8966.0, 9022.0, 8939.0, 8988.0, 8964.0, 8973.0, 8969.0, 8941.0, 8942.0, 8936.0, 8964.0, 9010.0, 8999.0, 9001.0, 8960.0, 8954.0, 8944.0, 8958.0, 8944.0, 8927.0, 8912.0, 8911.0, 8910.0, 8902.0, 8908.0, 8914.0, 8917.0, 8916.0, 8925.0, 8956.0, 8968.0, 8957.0, 8955.0, 8975.0, 8938.0, 8924.0, 8920.0, 8920.0, 8921.0, 8944.0, 8945.0, 8973.0, 8942.0, 8941.0, 8975.0, 8936.0, 8959.0, 8960.0, 8946.0, 8978.0, 8940.0, 8954.0, 8953.0, 8947.0, 8969.0, 8960.0, 8979.0, 9011.0, 8988.0, 8987.0, 8952.0, 8962.0, 8992.0, 9006.0, 8999.0, 8983.0, 8990.0, 8994.0, 8999.0, 9013.0, 8997.0, 8980.0, 8975.0, 8990.0, 8957.0, 8957.0, 8967.0, 8942.0, 8940.0, 8960.0, 8940.0, 8942.0, 8935.0, 8927.0, 8930.0, 8962.0, 8957.0, 8968.0, 8954.0, 8960.0, 8933.0, 8959.0, 8962.0, 8969.0, 8979.0, 8979.0, 8955.0, 8982.0, 8962.0, 8956.0, 8972.0, 8947.0, 8942.0, 8964.0, 8954.0, 8943.0, 9002.0, 8926.0, 8918.0, 8938.0, 8922.0, 8941.0, 8937.0, 8931.0, 8936.0, 8928.0, 8922.0, 8940.0, 8942.0, 8967.0, 8997.0, 9045.0, 8999.0, 9005.0, 8944.0, 8933.0, 8963.0, 8944.0, 8929.0, 8970.0, 8960.0, 8958.0, 8971.0, 8967.0, 9010.0, 9008.0, 8979.0, 8976.0, 8944.0, 8958.0, 9023.0, 8997.0, 9020.0, 9040.0, 9010.0, 8986.0, 8963.0, 8960.0, 8956.0, 8971.0, 8946.0, 8975.0, 8986.0, 8970.0, 8938.0, 8965.0],
      "WindowWidth": [19288.0, 19167.0, 19107.0, 19122.0, 19104.0, 19084.0, 19075.0, 18990.0, 18993.0, 18967.0, 18983.0, 18988.0, 19029.0, 19013.0, 19026.0, 19025.0, 19045.0, 19054.0, 19016.0, 19000.0, 19070.0, 19106.0, 19124.0, 19016.0, 19020.0, 18965.0, 18936.0, 18935.0, 19006.0, 18917.0, 18930.0, 18944.0, 18992.0, 19048.0, 19007.0, 18942.0, 19000.0, 19092.0, 18964.0, 19055.0, 19015.0, 19024.0, 19010.0, 18963.0, 18970.0, 18968.0, 19027.0, 19117.0, 19107.0, 19110.0, 19016.0, 18992.0, 18978.0, 18997.0, 18970.0, 18945.0, 18917.0, 18914.0, 18909.0, 18893.0, 18906.0, 18912.0, 18923.0, 18920.0, 18941.0, 18991.0, 19005.0, 18988.0, 18986.0, 19016.0, 18957.0, 18934.0, 18931.0, 18932.0, 18937.0, 18983.0, 18987.0, 19034.0, 18985.0, 18980.0, 19031.0, 18964.0, 18994.0, 18998.0, 18974.0, 19027.0, 18966.0, 18990.0, 18989.0, 18983.0, 19026.0, 19014.0, 19053.0, 19109.0, 19071.0, 19068.0, 19006.0, 19019.0, 19064.0, 19077.0, 19065.0, 19048.0, 19067.0, 19070.0, 19085.0, 19120.0, 19096.0, 19060.0, 19045.0, 19066.0, 19011.0, 19008.0, 19023.0, 18984.0, 18976.0, 19014.0, 18978.0, 18973.0, 18960.0, 18946.0, 18958.0, 19009.0, 19003.0, 19020.0, 18995.0, 19003.0, 18955.0, 18999.0, 19009.0, 19020.0, 19041.0, 19041.0, 19003.0, 19050.0, 19016.0, 19006.0, 19026.0, 18988.0, 18981.0, 19015.0, 19005.0, 18988.0, 19078.0, 18952.0, 18931.0, 18963.0, 18938.0, 18972.0, 18968.0, 18957.0, 18963.0, 18949.0, 18941.0, 18973.0, 18976.0, 19025.0, 19084.0, 19168.0, 19096.0, 19092.0, 18984.0, 18961.0, 19008.0, 18977.0, 18952.0, 19022.0, 19012.0, 19016.0, 19040.0, 19035.0, 19102.0, 19096.0, 19042.0, 19032.0, 18982.0, 19016.0, 19126.0, 19099.0, 19142.0, 19166.0, 19104.0, 19058.0, 19014.0, 19005.0, 18995.0, 19025.0, 18986.0, 19030.0, 19043.0, 19012.0, 18963.0, 19005.0]
    },
    "slices": {}
  },
  "NumberOfVolumes": 192
}