{
  "AcquisitionMatrixPE": 104,
  "AcquisitionNumber": 1,
  "AcquisitionTime": "11:55:44.530000",
  "BandwidthPerPixelPhaseEncode": 16.578,
  "BaseResolution": 104,
  "BodyPartExamined": "BRAIN",
  "ConsistencyInfo": "N4_VE11C_LATEST_20160120",
  "ConversionSoftware": "dcm2niix",
  "ConversionSoftwareVersion": "v1.0.20190902",
  "DerivedVendorReportedEchoSpacing": 0.000580009,
  "DeviceSerialNumber": "166018",
  "DwellTime": 2.1e-06,
  "EchoTime": 0.037,
  "EchoTrainLength": 104,
  "EffectiveEchoSpacing": 0.000580009,
  "FlipAngle": 68,
  "ImageComments": "Unaliased_MB6_PE3_LB",
  "ImageOrientationPatientDICOM": [0.994698, -0.0553282, 0.0866878, 0.0641499, 0.99266, -0.102526],
  "ImageType": [
    "ORIGINAL",
    "PRIMARY",
    "M",
    "MB",
    "ND",
    "MOSAIC"
],
  "ImagingFrequency": 123.187,
  "InPlanePhaseEncodingDirectionDICOM": "COL",
  "InstitutionAddress": "Washington_Place_6_NYC_NYC_US_10003",
  "InstitutionName": "NYU_Center_for_Brain_Imaging",
  "InstitutionalDepartmentName": "Department",
  "MRAcquisitionType": "2D",
  "MagneticFieldStrength": 3,
  "Manufacturer": "Siemens",
  "ManufacturersModelName": "Prisma",
  "Modality": "MR",
  "MultibandAccelerationFactor": 6,
  "PartialFourier": 1,
  "PatientPosition": "HFS",
  "PercentPhaseFOV": 100,
  "PhaseEncodingDirection": "j",
  "PhaseEncodingSteps": 104,
  "PhaseResolution": 1,
  "PixelBandwidth": 2290,
  "ProcedureStepDescription": "Investigators_Winawer",
  "ProtocolName": "cmrr_mbepi_s6_2mm_66sl_PA_TR1.0",
  "PulseSequenceDetails": "%CustomerSeq%_cmrr_mbep2d_bold",
  "ReceiveCoilActiveElements": "HC1-7",
  "ReceiveCoilName": "HeadNeck_64",
  "ReconMatrixPE": 104,
  "RepetitionTime": 1,
  "SAR": 0.0783302,
  "ScanOptions": "FS",
  "ScanningSequence": "EP",
  "SequenceName": "epfid2d1_104",
  "SequenceVariant": "SK_SS",
  "SeriesDescription": "cmrr_mbepi_s6_2mm_66sl_PA_TR1.0",
  "SeriesNumber": 24,
  "ShimSetting": [289, -12569, -8490, 291, -7, 19, -115, -20],
  "SliceThickness": 2,
  "SliceTiming": [0, 0.535, 0.0875, 0.6225, 0.1775, 0.7125, 0.2675, 0.8, 0.355, 0.89, 0.445, 0, 0.535, 0.0875, 0.6225, 0.1775, 0.7125, 0.2675, 0.8, 0.355, 0.89, 0.445, 0, 0.535, 0.0875, 0.6225, 0.1775, 0.7125, 0.2675, 0.8, 0.355, 0.89, 0.445, 0, 0.535, 0.0875, 0.6225, 0.1775, 0.7125, 0.2675, 0.8, 0.355, 0.89, 0.445, 0, 0.535, 0.0875, 0.6225, 0.1775, 0.7125, 0.2675, 0.8, 0.355, 0.89, 0.445, 0, 0.535, 0.0875, 0.6225, 0.1775, 0.7125, 0.2675, 0.8, 0.355, 0.89, 0.445],
  "SoftwareVersions": "syngo_MR_E11",
  "SpacingBetweenSlices": 2,
  "StationName": "AWP166018",
  "TaskName": "prf",
  "TotalReadoutTime": 0.0597409,
  "TxRefAmp": 208.721,
  "WipMemBlock": "a466239c-b909-428d-8fb1-260c82f4a55c||Sequence: ve11c/master r/ab69a6c; Apr 19 2017 09:47:47 by eja",
  "dcmmeta_affine": [
    [-1.9893958568572998, 0.12829983234405518, 0.16075778007507324, 101.37809753417969],
    [0.11065631359815598, 1.9853192567825317, -0.21508699655532837, -65.62957763671875],
    [0.17337557673454285, 0.20505216717720032, 1.9818916320800781, -67.0409164428711],
    [0.0, 0.0, 0.0, 1.0]
],
  "dcmmeta_reorient_transform": [
    [0.0, -1.0, 0.0, 103.0],
    [1.0, 0.0, 0.0, 0.0],
    [0.0, 0.0, 1.0, 0.0],
    [0.0, 0.0, 0.0, 1.0]
],
  "dcmmeta_shape": [104, 104, 66, 192],
  "dcmmeta_slice_dim": 2,
  "dcmmeta_version": 0.6,
  "global": {
    "const": {
      "AccessionNumber": "j66ik478",
      "AcquisitionMatrix": [104, 0, 0, 104],
      "AngioFlag": "N",
      "BitsAllocated": 16,
      "BitsStored": 16,
      "BodyPartExamined": "BRAIN",
      "Columns": 936,
      "EchoNumbers": 1,
      "EchoTime": 37.0,
      "EchoTrainLength": 104,
      "FlipAngle": 68.0,
      "HighBit": 15,
      "ImageOrientationPatient": [0.99469795526587, -0.0553281562539, 0.08668778988672, 0.06414991394605, 0.99265965485144, -0.1025260853195],
      "ImagePositionPatient": [-995.55441012872, -918.71811429132, -32.743077795519],
      "ImageType": [
        "ORIGINAL",
        "PRIMARY",
        "M",
        "MB",
        "ND",
        "MOSAIC"
],
      "ImagedNucleus": "1H",
      "ImagingFrequency": 123.187278,
      "InPlanePhaseEncodingDirection": "COL",
      "MRAcquisitionType": "2D",
      "MagneticFieldStrength": 3.0,
      "Manufacturer": "SIEMENS",
      "ManufacturerModelName": "Prisma",
      "Modality": "MR",
      "NumberOfAverages": 1.0,
      "NumberOfPhaseEncodingSteps": 104,
      "PercentPhaseFieldOfView": 100.0,
      "PercentSampling": 100.0,
      "PerformedProcedureStepStartTime": "111750.314000",
      "PhotometricInterpretation": "MONOCHROME2",
      "PixelBandwidth": 2290.0,
      "PixelRepresentation": 0,
      "PixelSpacing": [2.0, 2.0],
      "ProtocolName": "cmrr_mbepi_s6_2mm_66sl_PA_TR1.0",
      "RepetitionTime": 1000.0,
      "Rows": 936,
      "SAR": 0.07833016078607,
      "SamplesPerPixel": 1,
      "ScanOptions": "FS",
      "ScanningSequence": "EP",
      "SequenceName": "epfid2d1_104",
      "SequenceVariant": [
        "SK",
        "SS"
],
      "SeriesDescription": "cmrr_mbepi_s6_2mm_66sl_PA_TR1.0",
      "SeriesNumber": 24,
      "SeriesTime": "115642.228000",
      "SliceLocation": -51.227218599238,
      "SliceThickness": 2.0,
      "SmallestImagePixelValue": 0,
      "SoftwareVersions": "syngo MR E11",
      "SpacingBetweenSlices": 1.9999999826765,
      "SpecificCharacterSet": "ISO_IR 100",
      "StudyID": "2",
      "StudyTime": "111750.025000",
      "TransmitCoilName": "Body",
      "VariableFlipAngleFlag": "N",
      "WindowCenterWidthExplanation": "Algo1",
      "dBdt": 0.0},
    "slices": {}
  },
  "time": {
    "samples": {
      "AcquisitionNumber": [1, 2, 3, 4, 5, 6, 7, 8, 9, 10, 11, 12, 13, 14, 15, 16, 17, 18, 19, 20, 21, 22, 23, 24, 25, 26, 27, 28, 29, 30, 31, 32, 33, 34, 35, 36, 37, 38, 39, 40, 41, 42, 43, 44, 45, 46, 47, 48, 49, 50, 51, 52, 53, 54, 55, 56, 57, 58, 59, 60, 61, 62, 63, 64, 65, 66, 67, 68, 69, 70, 71, 72, 73, 74, 75, 76, 77, 78, 79, 80, 81, 82, 83, 84, 85, 86, 87, 88, 89, 90, 91, 92, 93, 94, 95, 96, 97, 98, 99, 100, 101, 102, 103, 104, 105, 106, 107, 108, 109, 110, 111, 112, 113, 114, 115, 116, 117, 118, 119, 120, 121, 122, 123, 124, 125, 126, 127, 128, 129, 130, 131, 132, 133, 134, 135, 136, 137, 138, 139, 140, 141, 142, 143, 144, 145, 146, 147, 148, 149, 150, 151, 152, 153, 154, 155, 156, 157, 158, 159, 160, 161, 162, 163, 164, 165, 166, 167, 168, 169, 170, 171, 172, 173, 174, 175, 176, 177, 178, 179, 180, 181, 182, 183, 184, 185, 186, 187, 188, 189, 190, 191, 192],
      "AcquisitionTime": ["115544.530000", "115545.530000", "115546.530000", "115547.530000", "115548.530000", "115549.530000", "115550.530000", "115551.530000", "115552.530000", "115553.530000", "115554.530000", "115555.530000", "115556.530000", "115557.530000", "115558.530000", "115559.530000", "115600.530000", "115601.530000", "115602.530000", "115603.530000", "115604.530000", "115605.530000", "115606.530000", "115607.530000", "115608.530000", "115609.530000", "115610.530000", "115611.530000", "115612.530000", "115613.530000", "115614.530000", "115615.530000", "115616.530000", "115617.530000", "115618.530000", "115619.530000", "115620.530000", "115621.530000", "115622.530000", "115623.530000", "115624.530000", "115625.530000", "115626.530000", "115627.530000", "115628.530000", "115629.530000", "115630.530000", "115631.530000", "115632.530000", "115633.530000", "115634.530000", "115635.530000", "115636.530000", "115637.530000", "115638.530000", "115639.530000", "115640.530000", "115641.530000", "115642.530000", "115643.530000", "115644.530000", "115645.530000", "115646.530000", "115647.530000", "115648.530000", "115649.530000", "115650.530000", "115651.530000", "115652.530000", "115653.530000", "115654.530000", "115655.530000", "115656.530000", "115657.530000", "115658.530000", "115659.530000", "115700.530000", "115701.530000", "115702.530000", "115703.530000", "115704.530000", "115705.530000", "115706.530000", "115707.530000", "115708.530000", "115709.530000", "115710.530000", "115711.530000", "115712.530000", "115713.530000", "115714.530000", "115715.530000", "115716.530000", "115717.530000", "115718.530000", "115719.530000", "115720.530000", "115721.530000", "115722.530000", "115723.530000", "115724.530000", "115725.530000", "115726.530000", "115727.530000", "115728.530000", "115729.530000", "115730.530000", "115731.530000", "115732.530000", "115733.530000", "115734.530000", "115735.530000", "115736.530000", "115737.530000", "115738.530000", "115739.530000", "115740.530000", "115741.530000", "115742.530000", "115743.530000", "115744.530000", "115745.530000", "115746.530000", "115747.530000", "115748.530000", "115749.530000", "115750.530000", "115751.530000", "115752.530000", "115753.530000", "115754.530000", "115755.530000", "115756.530000", "115757.530000", "115758.530000", "115759.530000", "115800.530000", "115801.530000", "115802.530000", "115803.530000", "115804.530000", "115805.530000", "115806.530000", "115807.530000", "115808.530000", "115809.530000", "115810.530000", "115811.530000", "115812.530000", "115813.530000", "115814.530000", "115815.530000", "115816.530000", "115817.530000", "115818.530000", "115819.530000", "115820.530000", "115821.530000", "115822.530000", "115823.530000", "115824.530000", "115825.530000", "115826.530000", "115827.530000", "115828.530000", "115829.530000", "115830.530000", "115831.530000", "115832.530000", "115833.530000", "115834.530000", "115835.530000", "115836.530000", "115837.530000", "115838.530000", "115839.530000", "115840.530000", "115841.530000", "115842.530000", "115843.530000", "115844.530000", "115845.530000", "115846.530000", "115847.530000", "115848.530000", "115849.530000", "115850.530000", "115851.530000", "115852.530000", "115853.530000", "115854.530000", "115855.530000"],
      "ContentTime": ["115642.230000", "115642.234000", "115642.243000", "115642.246000", "115642.250000", "115642.253000", "115642.255000", "115642.259000", "115642.262000", "115642.264000", "115642.280000", "115642.289000", "115702.195000", "115702.198000", "115702.201000", "115702.204000", "115702.207000", "115702.210000", "115702.213000", "115702.216000", "115702.221000", "115702.223000", "115702.226000", "115702.230000", "115702.233000", "115702.236000", "115702.239000", "115702.241000", "115702.244000", "115702.247000", "115702.250000", "115702.253000", "115702.256000", "115702.259000", "115702.262000", "115702.265000", "115702.268000", "115702.271000", "115702.274000", "115702.277000", "115722.195000", "115722.198000", "115722.201000", "115722.204000", "115722.207000", "115722.210000", "115722.213000", "115722.216000", "115722.219000", "115722.222000", "115722.225000", "115722.228000", "115722.231000", "115722.234000", "115722.237000", "115722.241000", "115722.244000", "115722.247000", "115722.250000", "115722.253000", "115722.256000", "115722.259000", "115722.262000", "115722.265000", "115722.268000", "115722.271000", "115722.274000", "115722.277000", "115742.195000", "115742.198000", "115742.201000", "115742.204000", "115742.207000", "115742.210000", "115742.213000", "115742.216000", "115742.219000", "115742.234000", "115742.237000", "115742.240000", "115742.243000", "115742.246000", "115742.249000", "115742.252000", "115742.255000", "115742.258000", "115742.261000", "115742.264000", "115742.267000", "115742.270000", "115742.273000", "115742.276000", "115742.279000", "115742.282000", "115742.285000", "115742.288000", "115742.291000", "115802.194000", "115802.197000", "115802.200000", "115802.203000", "115802.206000", "115802.212000", "115802.215000", "115802.218000", "115802.221000", "115802.224000", "115802.227000", "115802.230000", "115802.233000", "115802.236000", "115802.240000", "115802.243000", "115802.246000", "115802.249000", "115802.252000", "115802.255000", "115802.258000", "115802.261000", "115802.264000", "115802.267000", "115802.270000", "115802.273000", "115802.276000", "115802.279000", "115822.195000", "115822.198000", "115822.201000", "115822.204000", "115822.207000", "115822.210000", "115822.213000", "115822.216000", "115822.219000", "115822.222000", "115822.225000", "115822.228000", "115822.231000", "115822.234000", "115822.237000", "115822.240000", "115822.243000", "115822.246000", "115822.249000", "115822.252000", "115822.255000", "115822.258000", "115822.261000", "115822.264000", "115822.267000", "115822.270000", "115822.273000", "115822.276000", "115842.195000", "115842.198000", "115842.201000", "115842.204000", "115842.207000", "115842.210000", "115842.213000", "115842.229000", "115842.232000", "115842.235000", "115842.238000", "115842.241000", "115842.244000", "115842.247000", "115842.250000", "115842.253000", "115842.256000", "115842.259000", "115842.262000", "115842.265000", "115842.268000", "115842.271000", "115842.274000", "115842.277000", "115856.865000", "115856.869000", "115856.872000", "115856.875000", "115856.878000", "115856.882000", "115856.885000", "115856.888000", "115856.894000", "115856.898000", "115856.902000", "115856.905000", "115856.908000", "115856.912000", "115856.916000"],
      "InstanceCreationTime": ["115642.230000", "115642.234000", "115642.243000", "115642.246000", "115642.250000", "115642.253000", "115642.255000", "115642.259000", "115642.262000", "115642.264000", "115642.280000", "115642.289000", "115702.195000", "115702.198000", "115702.201000", "115702.204000", "115702.207000", "115702.210000", "115702.213000", "115702.216000", "115702.221000", "115702.223000", "115702.226000", "115702.230000", "115702.233000", "115702.236000", "115702.239000", "115702.241000", "115702.244000", "115702.247000", "115702.250000", "115702.253000", "115702.256000", "115702.259000", "115702.262000", "115702.265000", "115702.268000", "115702.271000", "115702.274000", "115702.277000", "115722.195000", "115722.198000", "115722.201000", "115722.204000", "115722.207000", "115722.210000", "115722.213000", "115722.216000", "115722.219000", "115722.222000", "115722.225000", "115722.228000", "115722.231000", "115722.234000", "115722.237000", "115722.241000", "115722.244000", "115722.247000", "115722.250000", "115722.253000", "115722.256000", "115722.259000", "115722.262000", "115722.265000", "115722.268000", "115722.271000", "115722.274000", "115722.277000", "115742.195000", "115742.198000", "115742.201000", "115742.204000", "115742.207000", "115742.210000", "115742.213000", "115742.216000", "115742.219000", "115742.234000", "115742.237000", "115742.240000", "115742.243000", "115742.246000", "115742.249000", "115742.252000", "115742.255000", "115742.258000", "115742.261000", "115742.264000", "115742.267000", "115742.270000", "115742.273000", "115742.276000", "115742.279000", "115742.282000", "115742.285000", "115742.288000", "115742.291000", "115802.194000", "115802.197000", "115802.200000", "115802.203000", "115802.206000", "115802.212000", "115802.215000", "115802.218000", "115802.221000", "115802.224000", "115802.227000", "115802.230000", "115802.233000", "115802.236000", "115802.240000", "115802.243000", "115802.246000", "115802.249000", "115802.252000", "115802.255000", "115802.258000", "115802.261000", "115802.264000", "115802.267000", "115802.270000", "115802.273000", "115802.276000", "115802.279000", "115822.195000", "115822.198000", "115822.201000", "115822.204000", "115822.207000", "115822.210000", "115822.213000", "115822.216000", "115822.219000", "115822.222000", "115822.225000", "115822.228000", "115822.231000", "115822.234000", "115822.237000", "115822.240000", "115822.243000", "115822.246000", "115822.249000", "115822.252000", "115822.255000", "115822.258000", "115822.261000", "115822.264000", "115822.267000", "115822.270000", "115822.273000", "115822.276000", "115842.195000", "115842.198000", "115842.201000", "115842.204000", "115842.207000", "115842.210000", "115842.213000", "115842.229000", "115842.232000", "115842.235000", "115842.238000", "115842.241000", "115842.244000", "115842.247000", "115842.250000", "115842.253000", "115842.256000", "115842.259000", "115842.262000", "115842.265000", "115842.268000", "115842.271000", "115842.274000", "115842.277000", "115856.865000", "115856.869000", "115856.872000", "115856.875000", "115856.878000", "115856.882000", "115856.885000", "115856.888000", "115856.894000", "115856.898000", "115856.902000", "115856.905000", "115856.908000", "115856.912000", "115856.916000"],
      "InstanceNumber": [1, 2, 3, 4, 5, 6, 7, 8, 9, 10, 11, 12, 13, 14, 15, 16, 17, 18, 19, 20, 21, 22, 23, 24, 25, 26, 27, 28, 29, 30, 31, 32, 33, 34, 35, 36, 37, 38, 39, 40, 41, 42, 43, 44, 45, 46, 47, 48, 49, 50, 51, 52, 53, 54, 55, 56, 57, 58, 59, 60, 61, 62, 63, 64, 65, 66, 67, 68, 69, 70, 71, 72, 73, 74, 75, 76, 77, 78, 79, 80, 81, 82, 83, 84, 85, 86, 87, 88, 89, 90, 91, 92, 93, 94, 95, 96, 97, 98, 99, 100, 101, 102, 103, 104, 105, 106, 107, 108, 109, 110, 111, 112, 113, 114, 115, 116, 117, 118, 119, 120, 121, 122, 123, 124, 125, 126, 127, 128, 129, 130, 131, 132, 133, 134, 135, 136, 137, 138, 139, 140, 141, 142, 143, 144, 145, 146, 147, 148, 149, 150, 151, 152, 153, 154, 155, 156, 157, 158, 159, 160, 161, 162, 163, 164, 165, 166, 167, 168, 169, 170, 171, 172, 173, 174, 175, 176, 177, 178, 179, 180, 181, 182, 183, 184, 185, 186, 187, 188, 189, 190, 191, 192],
      "LargestImagePixelValue": [37771, 36703, 35726, 35186, 34861, 35220, 35256, 34991, 35131, 36013, 34362, 35321, 34662, 34339, 34322, 35175, 39811, 35772, 36599, 34522, 34561, 34473, 33929, 34641, 34308, 34643, 40863, 37193, 34294, 35647, 34248, 34412, 34554, 34417, 34498, 34588, 34566, 34657, 35361, 34579, 38720, 34453, 34719, 34579, 34874, 34144, 34621, 37968, 40757, 35320, 38137, 35560, 35164, 37280, 37722, 34517, 34408, 34366, 34405, 34148, 37944, 34724, 39583, 34770, 34230, 40337, 37740, 34920, 36166, 34924, 39157, 34930, 37452, 34380, 36933, 36398, 35874, 34364, 33954, 33933, 34452, 35955, 34441, 33709, 34064, 36471, 36976, 34400, 35446, 34256, 34353, 34264, 34710, 39150, 34900, 34814, 34590, 35967, 34295, 34280, 36850, 34344, 34934, 34202, 36610, 34716, 34512, 34773, 34193, 34607, 36983, 34913, 34809, 34737, 34600, 34537, 34452, 35162, 42990, 34650, 34498, 34651, 35018, 34490, 34102, 34481, 33932, 34244, 34296, 34661, 34779, 34530, 34804, 34890, 35124, 38654, 34827, 34137, 34129, 34368, 34275, 34219, 35883, 34626, 34514, 34660, 34680, 35012, 34872, 37157, 34664, 43753, 36022, 34940, 34689, 34705, 34476, 36048, 34643, 37575, 34646, 34487, 33887, 34370, 34750, 34408, 34962, 34847, 35829, 34442, 34589, 34395, 34581, 34654, 38657, 34112, 35016, 34646, 39274, 34773, 34386, 34392, 34678, 34927, 34828, 34890, 34864, 36142, 34767, 37534, 39126, 34769],
      "WindowCenter": [9048.0, 9007.0, 8975.0, 8965.0, 8956.0, 8959.0, 8961.0, 8951.0, 8959.0, 8964.0, 8946.0, 8952.0, 8946.0, 8939.0, 8936.0, 8943.0, 8992.0, 8963.0, 8968.0, 8954.0, 8962.0, 8972.0, 8958.0, 8954.0, 8954.0, 8975.0, 9049.0, 9007.0, 8960.0, 8955.0, 8931.0, 8928.0, 8927.0, 8927.0, 8935.0, 8932.0, 8935.0, 8951.0, 8960.0, 8954.0, 8987.0, 8947.0, 8938.0, 8938.0, 8943.0, 8937.0, 8941.0, 8968.0, 8982.0, 8927.0, 8938.0, 8911.0, 8907.0, 8940.0, 8947.0, 8918.0, 8927.0, 8928.0, 8936.0, 8939.0, 8990.0, 8952.0, 9000.0, 8950.0, 8954.0, 9024.0, 9001.0, 8972.0, 8982.0, 8940.0, 8974.0, 8924.0, 8964.0, 8938.0, 8969.0, 8965.0, 8959.0, 8939.0, 8921.0, 8921.0, 8927.0, 8944.0, 8937.0, 8931.0, 8939.0, 8964.0, 8963.0, 8936.0, 8932.0, 8927.0, 8937.0, 8949.0, 8957.0, 8998.0, 8946.0, 8937.0, 8929.0, 8935.0, 8929.0, 8931.0, 8968.0, 8947.0, 8955.0, 8948.0, 8975.0, 8948.0, 8948.0, 8945.0, 8947.0, 8948.0, 8980.0, 8952.0, 8963.0, 8973.0, 8971.0, 8973.0, 8963.0, 8971.0, 9035.0, 8956.0, 8948.0, 8939.0, 8938.0, 8939.0, 8940.0, 8928.0, 8903.0, 8902.0, 8907.0, 8912.0, 8923.0, 8919.0, 8917.0, 8910.0, 8904.0, 8924.0, 8886.0, 8882.0, 8890.0, 8899.0, 8900.0, 8904.0, 8938.0, 8935.0, 8938.0, 8944.0, 8953.0, 8964.0, 9006.0, 9045.0, 9020.0, 9091.0, 8999.0, 8967.0, 8949.0, 8940.0, 8938.0, 8957.0, 8955.0, 9002.0, 8991.0, 8992.0, 8969.0, 8951.0, 8946.0, 8939.0, 8945.0, 8940.0, 8944.0, 8929.0, 8919.0, 8913.0, 8929.0, 8945.0, 8982.0, 8929.0, 8942.0, 8938.0, 9005.0, 8980.0, 8967.0, 8961.0, 8949.0, 8945.0, 8944.0, 8951.0, 8945.0, 8964.0, 8948.0, 8985.0, 8992.0, 8953.0],
      "WindowWidth": [19241.0, 19134.0, 19055.0, 19025.0, 19002.0, 19002.0, 19005.0, 18985.0, 18999.0, 19006.0, 18974.0, 18987.0, 18978.0, 18964.0, 18955.0, 18964.0, 19042.0, 19004.0, 19009.0, 18992.0, 19009.0, 19033.0, 19004.0, 18993.0, 18995.0, 19043.0, 19159.0, 19093.0, 19007.0, 18992.0, 18947.0, 18941.0, 18940.0, 18939.0, 18953.0, 18948.0, 18955.0, 18986.0, 19008.0, 18998.0, 19045.0, 18987.0, 18967.0, 18968.0, 18975.0, 18967.0, 18974.0, 19010.0, 19027.0, 18935.0, 18943.0, 18897.0, 18896.0, 18953.0, 18966.0, 18921.0, 18938.0, 18941.0, 18959.0, 18963.0, 19049.0, 18986.0, 19068.0, 18981.0, 18994.0, 19110.0, 19076.0, 19033.0, 19047.0, 18965.0, 19013.0, 18925.0, 18996.0, 18961.0, 19015.0, 19012.0, 19000.0, 18963.0, 18926.0, 18928.0, 18938.0, 18968.0, 18959.0, 18951.0, 18968.0, 19011.0, 19005.0, 18957.0, 18949.0, 18941.0, 18959.0, 18989.0, 19000.0, 19064.0, 18977.0, 18961.0, 18942.0, 18953.0, 18943.0, 18950.0, 19011.0, 18982.0, 18996.0, 18983.0, 19029.0, 18985.0, 18983.0, 18976.0, 18982.0, 18986.0, 19038.0, 18987.0, 19014.0, 19034.0, 19030.0, 19037.0, 19011.0, 19026.0, 19124.0, 18997.0, 18982.0, 18966.0, 18963.0, 18968.0, 18971.0, 18945.0, 18894.0, 18884.0, 18892.0, 18902.0, 18924.0, 18921.0, 18913.0, 18895.0, 18879.0, 18903.0, 18848.0, 18843.0, 18861.0, 18880.0, 18884.0, 18895.0, 18959.0, 18958.0, 18967.0, 18973.0, 18997.0, 19018.0, 19110.0, 19184.0, 19137.0, 19245.0, 19085.0, 19018.0, 18985.0, 18967.0, 18960.0, 18994.0, 18995.0, 19081.0, 19074.0, 19075.0, 19027.0, 18989.0, 18975.0, 18964.0, 18973.0, 18968.0, 18971.0, 18945.0, 18923.0, 18916.0, 18947.0, 18976.0, 19034.0, 18944.0, 18963.0, 18960.0, 19079.0, 19049.0, 19026.0, 19013.0, 18985.0, 18974.0, 18971.0, 18983.0, 18975.0, 19010.0, 18985.0, 19044.0, 19055.0, 18991.0]
    },
    "slices": {}
  },
  "NumberOfVolumes": 192
}