{
  "aor": 0.003011458333333333,
  "aqi": 0.009805619895833333,
  "bids_meta": {
    "AcquisitionMatrixPE": 104,
    "AcquisitionNumber": 1,
    "AcquisitionTime": "11:58:31.500000",
    "BandwidthPerPixelPhaseEncode": 16.578,
    "BaseResolution": 104,
    "BodyPartExamined": "BRAIN",
    "CogAtlasID": "TODO",
    "ConsistencyInfo": "N4_VE11C_LATEST_20160120",
    "ConversionSoftware": "dcm2niix",
    "ConversionSoftwareVersion": "v1.0.20190902",
    "DerivedVendorReportedEchoSpacing": 0.000580009,
    "DeviceSerialNumber": "166018",
    "DwellTime": 2.1e-06,
    "EchoTime": 0.037,
    "EchoTrainLength": 104,
    "EffectiveEchoSpacing": 0.000580009,
    "FlipAngle": 68,
    "ImageComments": "Unaliased_MB6_PE3_LB",
    "ImageOrientationPatientDICOM": [
      0.997454,
      0.0494553,
      0.0513702,
      -0.0355291,
      0.9693,
      -0.2433
    ],
    "ImageType": [
      "ORIGINAL",
      "PRIMARY",
      "M",
      "MB",
      "ND",
      "MOSAIC"
    ],
    "ImagingFrequency": 123.191,
    "InPlanePhaseEncodingDirectionDICOM": "COL",
    "InstitutionAddress": "Washington_Place_6_NYC_NYC_US_10003",
    "InstitutionName": "NYU_-_CBI",
    "InstitutionalDepartmentName": "Department",
    "MRAcquisitionType": "2D",
    "MagneticFieldStrength": 3,
    "Manufacturer": "Siemens",
    "ManufacturersModelName": "Prisma",
    "Modality": "MR",
    "MultibandAccelerationFactor": 6,
    "NumberOfVolumes": 192,
    "PartialFourier": 1,
    "PatientPosition": "HFS",
    "PercentPhaseFOV": 100,
    "PhaseEncodingDirection": "j",
    "PhaseEncodingSteps": 104,
    "PhaseResolution": 1,
    "PixelBandwidth": 2290,
    "ProcedureStepDescription": "Investigators_Winawer",
    "ProtocolName": "cmrr_mbepi_s6_2mm_66sl_PA_task-prf",
    "PulseSequenceDetails": "%CustomerSeq%_cmrr_mbep2d_bold",
    "ReceiveCoilActiveElements": "HC1-7",
    "ReceiveCoilName": "HeadNeck_64",
    "ReconMatrixPE": 104,
    "RepetitionTime": 1,
    "SAR": 0.0890984,
    "ScanOptions": "FS",
    "ScanningSequence": "EP",
    "SequenceName": "epfid2d1_104",
    "SequenceVariant": "SK_SS",
    "SeriesDescription": "cmrr_mbepi_s6_2mm_66sl_PA_task-prf",
    "SeriesNumber": 18,
    "ShimSetting": [
      284,
      -12595,
      -8423,
      298,
      -9,
      -94,
      25,
      46
    ],
    "SliceThickness": 2,
    "SliceTiming": [
      0,
      0.535,
      0.0875,
      0.6225,
      0.1775,
      0.7125,
      0.2675,
      0.8,
      0.355,
      0.89,
      0.445,
      0,
      0.535,
      0.0875,
      0.6225,
      0.1775,
      0.7125,
      0.2675,
      0.8,
      0.355,
      0.89,
      0.445,
      0,
      0.535,
      0.0875,
      0.6225,
      0.1775,
      0.7125,
      0.2675,
      0.8,
      0.355,
      0.89,
      0.445,
      0,
      0.535,
      0.0875,
      0.6225,
      0.1775,
      0.7125,
      0.2675,
      0.8,
      0.355,
      0.89,
      0.445,
      0,
      0.535,
      0.0875,
      0.6225,
      0.1775,
      0.7125,
      0.2675,
      0.8,
      0.355,
      0.89,
      0.445,
      0,
      0.535,
      0.0875,
      0.6225,
      0.1775,
      0.7125,
      0.2675,
      0.8,
      0.355,
      0.89,
      0.445
    ],
    "SoftwareVersions": "syngo_MR_E11",
    "SpacingBetweenSlices": 2,
    "StationName": "AWP166018",
    "TaskName": "prf",
    "TotalReadoutTime": 0.0597409,
    "TxRefAmp": 256.678,
    "WipMemBlock": "cd89f708-a4ed-4756-bef9-2ea59794eb23||Sequence: R016 ve11c/master r/8780670; Nov 27 2017 15:05:12 by eja",
    "acq_id": "PA",
    "dataset": "unknown",
    "dcmmeta_affine": [
      [
        -1.9949088096618652,
        -0.07105818390846252,
        0.12365120649337769,
        110.35638427734375
      ],
      [
        -0.09891056269407272,
        1.9386004209518433,
        -0.481710821390152,
        -69.56803894042969
      ],
      [
        0.10274039208889008,
        0.48659980297088623,
        1.937179684638977,
        -62.84848403930664
      ],
      [
        0.0,
        0.0,
        0.0,
        1.0
      ]
    ],
    "dcmmeta_reorient_transform": [
      [
        0.0,
        -1.0,
        0.0,
        103.0
      ],
      [
        1.0,
        0.0,
        0.0,
        0.0
      ],
      [
        0.0,
        0.0,
        1.0,
        0.0
      ],
      [
        0.0,
        0.0,
        0.0,
        1.0
      ]
    ],
    "dcmmeta_shape": [
      104,
      104,
      66,
      192
    ],
    "dcmmeta_slice_dim": 2,
    "dcmmeta_version": 0.6,
    "global": {
      "const": {
        "AccessionNumber": "ju9s08kb",
        "AcquisitionMatrix": [
          104,
          0,
          0,
          104
        ],
        "AngioFlag": "N",
        "BitsAllocated": 16,
        "BitsStored": 16,
        "BodyPartExamined": "BRAIN",
        "Columns": 936,
        "EchoNumbers": 1,
        "EchoTime": 37.0,
        "EchoTrainLength": 104,
        "FlipAngle": 68.0,
        "HighBit": 15,
        "ImageOrientationPatient": [
          0.99745439915999,
          0.04945528005028,
          0.05137019438873,
          -0.0355290918762,
          0.96930018254229,
          -0.2432998967405
        ],
        "ImagePositionPatient": [
          -903.35924447605,
          -977.71234717854,
          146.95680549671
        ],
        "ImageType": [
          "ORIGINAL",
          "PRIMARY",
          "M",
          "MB",
          "ND",
          "MOSAIC"
        ],
        "ImagedNucleus": "1H",
        "ImagingFrequency": 123.190985,
        "InPlanePhaseEncodingDirection": "COL",
        "MRAcquisitionType": "2D",
        "MagneticFieldStrength": 3.0,
        "Manufacturer": "SIEMENS",
        "ManufacturerModelName": "Prisma",
        "Modality": "MR",
        "NumberOfAverages": 1.0,
        "NumberOfPhaseEncodingSteps": 104,
        "PercentPhaseFieldOfView": 100.0,
        "PercentSampling": 100.0,
        "PerformedProcedureStepStartTime": "112027.521000",
        "PhotometricInterpretation": "MONOCHROME2",
        "PixelBandwidth": 2290.0,
        "PixelRepresentation": 0,
        "PixelSpacing": [
          2.0,
          2.0
        ],
        "ProtocolName": "cmrr_mbepi_s6_2mm_66sl_PA_task-prf",
        "RepetitionTime": 1000.0,
        "Rows": 936,
        "SAR": 0.0890984105316,
        "SamplesPerPixel": 1,
        "ScanOptions": "FS",
        "ScanningSequence": "EP",
        "SequenceName": "epfid2d1_104",
        "SequenceVariant": [
          "SK",
          "SS"
        ],
        "SeriesDescription": "cmrr_mbepi_s6_2mm_66sl_PA_task-prf",
        "SeriesNumber": 18,
        "SeriesTime": "115931.627000",
        "SliceLocation": -37.295716158282,
        "SliceThickness": 2.0,
        "SmallestImagePixelValue": 0,
        "SoftwareVersions": "syngo MR E11",
        "SpacingBetweenSlices": 1.9999999633369,
        "SpecificCharacterSet": "ISO_IR 100",
        "StudyID": "1",
        "StudyTime": "112027.455000",
        "TransmitCoilName": "Body",
        "VariableFlipAngleFlag": "N",
        "WindowCenterWidthExplanation": "Algo1",
        "dBdt": 0.0
      },
      "slices": {}
    },
    "modality": "bold",
    "run_id": 6,
    "session_id": "nyu3t01",
    "subject_id": "wlsubj084",
    "task_id": "prf",
    "time": {
      "samples": {
        "AcquisitionNumber": [
          1,
          2,
          3,
          4,
          5,
          6,
          7,
          8,
          9,
          10,
          11,
          12,
          13,
          14,
          15,
          16,
          17,
          18,
          19,
          20,
          21,
          22,
          23,
          24,
          25,
          26,
          27,
          28,
          29,
          30,
          31,
          32,
          33,
          34,
          35,
          36,
          37,
          38,
          39,
          40,
          41,
          42,
          43,
          44,
          45,
          46,
          47,
          48,
          49,
          50,
          51,
          52,
          53,
          54,
          55,
          56,
          57,
          58,
          59,
          60,
          61,
          62,
          63,
          64,
          65,
          66,
          67,
          68,
          69,
          70,
          71,
          72,
          73,
          74,
          75,
          76,
          77,
          78,
          79,
          80,
          81,
          82,
          83,
          84,
          85,
          86,
          87,
          88,
          89,
          90,
          91,
          92,
          93,
          94,
          95,
          96,
          97,
          98,
          99,
          100,
          101,
          102,
          103,
          104,
          105,
          106,
          107,
          108,
          109,
          110,
          111,
          112,
          113,
          114,
          115,
          116,
          117,
          118,
          119,
          120,
          121,
          122,
          123,
          124,
          125,
          126,
          127,
          128,
          129,
          130,
          131,
          132,
          133,
          134,
          135,
          136,
          137,
          138,
          139,
          140,
          141,
          142,
          143,
          144,
          145,
          146,
          147,
          148,
          149,
          150,
          151,
          152,
          153,
          154,
          155,
          156,
          157,
          158,
          159,
          160,
          161,
          162,
          163,
          164,
          165,
          166,
          167,
          168,
          169,
          170,
          171,
          172,
          173,
          174,
          175,
          176,
          177,
          178,
          179,
          180,
          181,
          182,
          183,
          184,
          185,
          186,
          187,
          188,
          189,
          190,
          191,
          192
        ],
        "AcquisitionTime": [
          "115831.500000",
          "115832.500000",
          "115833.500000",
          "115834.500000",
          "115835.500000",
          "115836.500000",
          "115837.500000",
          "115838.500000",
          "115839.500000",
          "115840.500000",
          "115841.500000",
          "115842.500000",
          "115843.500000",
          "115844.500000",
          "115845.500000",
          "115846.500000",
          "115847.500000",
          "115848.500000",
          "115849.500000",
          "115850.500000",
          "115851.500000",
          "115852.500000",
          "115853.500000",
          "115854.500000",
          "115855.500000",
          "115856.500000",
          "115857.500000",
          "115858.500000",
          "115859.500000",
          "115900.500000",
          "115901.500000",
          "115902.500000",
          "115903.500000",
          "115904.500000",
          "115905.500000",
          "115906.500000",
          "115907.500000",
          "115908.500000",
          "115909.500000",
          "115910.500000",
          "115911.500000",
          "115912.500000",
          "115913.500000",
          "115914.500000",
          "115915.500000",
          "115916.500000",
          "115917.500000",
          "115918.500000",
          "115919.500000",
          "115920.500000",
          "115921.500000",
          "115922.500000",
          "115923.500000",
          "115924.500000",
          "115925.500000",
          "115926.500000",
          "115927.500000",
          "115928.500000",
          "115929.500000",
          "115930.500000",
          "115931.500000",
          "115932.500000",
          "115933.500000",
          "115934.500000",
          "115935.500000",
          "115936.500000",
          "115937.500000",
          "115938.500000",
          "115939.500000",
          "115940.500000",
          "115941.500000",
          "115942.500000",
          "115943.500000",
          "115944.500000",
          "115945.500000",
          "115946.500000",
          "115947.500000",
          "115948.500000",
          "115949.500000",
          "115950.500000",
          "115951.500000",
          "115952.500000",
          "115953.500000",
          "115954.500000",
          "115955.500000",
          "115956.500000",
          "115957.500000",
          "115958.500000",
          "115959.500000",
          "120000.500000",
          "120001.500000",
          "120002.500000",
          "120003.500000",
          "120004.500000",
          "120005.500000",
          "120006.500000",
          "120007.500000",
          "120008.500000",
          "120009.500000",
          "120010.500000",
          "120011.500000",
          "120012.500000",
          "120013.500000",
          "120014.500000",
          "120015.500000",
          "120016.500000",
          "120017.500000",
          "120018.500000",
          "120019.500000",
          "120020.500000",
          "120021.500000",
          "120022.500000",
          "120023.500000",
          "120024.500000",
          "120025.500000",
          "120026.500000",
          "120027.500000",
          "120028.500000",
          "120029.500000",
          "120030.500000",
          "120031.500000",
          "120032.500000",
          "120033.500000",
          "120034.500000",
          "120035.500000",
          "120036.500000",
          "120037.500000",
          "120038.500000",
          "120039.500000",
          "120040.500000",
          "120041.500000",
          "120042.500000",
          "120043.500000",
          "120044.500000",
          "120045.500000",
          "120046.500000",
          "120047.500000",
          "120048.500000",
          "120049.500000",
          "120050.500000",
          "120051.500000",
          "120052.500000",
          "120053.500000",
          "120054.500000",
          "120055.500000",
          "120056.500000",
          "120057.500000",
          "120058.500000",
          "120059.500000",
          "120100.500000",
          "120101.500000",
          "120102.500000",
          "120103.500000",
          "120104.500000",
          "120105.500000",
          "120106.500000",
          "120107.500000",
          "120108.500000",
          "120109.500000",
          "120110.500000",
          "120111.500000",
          "120112.500000",
          "120113.500000",
          "120114.500000",
          "120115.500000",
          "120116.500000",
          "120117.500000",
          "120118.500000",
          "120119.500000",
          "120120.500000",
          "120121.500000",
          "120122.500000",
          "120123.500000",
          "120124.500000",
          "120125.500000",
          "120126.500000",
          "120127.500000",
          "120128.500000",
          "120129.500000",
          "120130.500000",
          "120131.500000",
          "120132.500000",
          "120133.500000",
          "120134.500000",
          "120135.500000",
          "120136.500000",
          "120137.500000",
          "120138.500000",
          "120139.500000",
          "120140.500000",
          "120141.500000",
          "120142.500000"
        ],
        "ContentTime": [
          "115931.629000",
          "115931.633000",
          "115931.636000",
          "115931.639000",
          "115931.642000",
          "115931.645000",
          "115931.656000",
          "115936.629000",
          "115936.632000",
          "115936.645000",
          "115936.648000",
          "115936.651000",
          "115936.654000",
          "115936.657000",
          "115941.629000",
          "115941.632000",
          "115941.635000",
          "115941.638000",
          "115941.641000",
          "115941.644000",
          "115941.647000",
          "115946.629000",
          "115946.633000",
          "115946.636000",
          "115946.639000",
          "115946.642000",
          "115946.645000",
          "115946.648000",
          "115951.628000",
          "115951.631000",
          "115951.634000",
          "115951.645000",
          "115951.648000",
          "115951.650000",
          "115951.653000",
          "115951.656000",
          "115956.629000",
          "115956.632000",
          "115956.635000",
          "115956.638000",
          "115956.641000",
          "115956.644000",
          "115956.647000",
          "120001.629000",
          "120001.632000",
          "120001.635000",
          "120001.638000",
          "120001.641000",
          "120001.644000",
          "120001.647000",
          "120006.628000",
          "120006.631000",
          "120006.634000",
          "120006.637000",
          "120006.640000",
          "120006.643000",
          "120006.646000",
          "120011.629000",
          "120011.632000",
          "120011.635000",
          "120011.648000",
          "120011.651000",
          "120011.654000",
          "120011.657000",
          "120016.629000",
          "120016.632000",
          "120016.635000",
          "120016.638000",
          "120016.641000",
          "120016.644000",
          "120016.647000",
          "120021.629000",
          "120021.632000",
          "120021.635000",
          "120021.638000",
          "120021.641000",
          "120021.644000",
          "120021.647000",
          "120026.628000",
          "120026.631000",
          "120026.634000",
          "120026.637000",
          "120026.640000",
          "120026.643000",
          "120026.646000",
          "120031.629000",
          "120031.632000",
          "120031.635000",
          "120031.638000",
          "120031.641000",
          "120031.644000",
          "120031.647000",
          "120036.629000",
          "120036.632000",
          "120036.635000",
          "120036.638000",
          "120036.641000",
          "120036.644000",
          "120036.647000",
          "120041.628000",
          "120041.631000",
          "120041.634000",
          "120041.637000",
          "120041.640000",
          "120041.643000",
          "120041.646000",
          "120046.629000",
          "120046.632000",
          "120046.635000",
          "120046.638000",
          "120046.641000",
          "120046.644000",
          "120046.647000",
          "120051.629000",
          "120051.632000",
          "120051.635000",
          "120051.638000",
          "120051.641000",
          "120051.644000",
          "120051.647000",
          "120056.629000",
          "120056.644000",
          "120056.647000",
          "120056.650000",
          "120056.653000",
          "120056.656000",
          "120056.659000",
          "120101.628000",
          "120101.631000",
          "120101.634000",
          "120101.637000",
          "120101.640000",
          "120101.643000",
          "120101.646000",
          "120106.629000",
          "120106.632000",
          "120106.635000",
          "120106.638000",
          "120106.641000",
          "120106.644000",
          "120106.647000",
          "120111.629000",
          "120111.632000",
          "120111.635000",
          "120111.638000",
          "120111.641000",
          "120111.644000",
          "120111.647000",
          "120116.628000",
          "120116.631000",
          "120116.634000",
          "120116.637000",
          "120116.640000",
          "120116.643000",
          "120116.646000",
          "120121.629000",
          "120121.632000",
          "120121.635000",
          "120121.638000",
          "120121.641000",
          "120121.644000",
          "120121.647000",
          "120126.629000",
          "120126.632000",
          "120126.635000",
          "120126.638000",
          "120126.641000",
          "120126.644000",
          "120126.647000",
          "120131.629000",
          "120131.632000",
          "120131.635000",
          "120131.638000",
          "120131.641000",
          "120131.644000",
          "120131.647000",
          "120131.650000",
          "120136.628000",
          "120136.631000",
          "120136.634000",
          "120136.637000",
          "120136.640000",
          "120136.643000",
          "120136.646000",
          "120141.629000",
          "120141.632000",
          "120141.635000",
          "120141.638000",
          "120141.641000",
          "120143.996000",
          "120144.003000",
          "120144.007000"
        ],
        "InstanceCreationTime": [
          "115931.629000",
          "115931.633000",
          "115931.636000",
          "115931.639000",
          "115931.642000",
          "115931.645000",
          "115931.656000",
          "115936.629000",
          "115936.632000",
          "115936.645000",
          "115936.648000",
          "115936.651000",
          "115936.654000",
          "115936.657000",
          "115941.629000",
          "115941.632000",
          "115941.635000",
          "115941.638000",
          "115941.641000",
          "115941.644000",
          "115941.647000",
          "115946.629000",
          "115946.633000",
          "115946.636000",
          "115946.639000",
          "115946.642000",
          "115946.645000",
          "115946.648000",
          "115951.628000",
          "115951.631000",
          "115951.634000",
          "115951.645000",
          "115951.648000",
          "115951.650000",
          "115951.653000",
          "115951.656000",
          "115956.629000",
          "115956.632000",
          "115956.635000",
          "115956.638000",
          "115956.641000",
          "115956.644000",
          "115956.647000",
          "120001.629000",
          "120001.632000",
          "120001.635000",
          "120001.638000",
          "120001.641000",
          "120001.644000",
          "120001.647000",
          "120006.628000",
          "120006.631000",
          "120006.634000",
          "120006.637000",
          "120006.640000",
          "120006.643000",
          "120006.646000",
          "120011.629000",
          "120011.632000",
          "120011.635000",
          "120011.648000",
          "120011.651000",
          "120011.654000",
          "120011.657000",
          "120016.629000",
          "120016.632000",
          "120016.635000",
          "120016.638000",
          "120016.641000",
          "120016.644000",
          "120016.647000",
          "120021.629000",
          "120021.632000",
          "120021.635000",
          "120021.638000",
          "120021.641000",
          "120021.644000",
          "120021.647000",
          "120026.628000",
          "120026.631000",
          "120026.634000",
          "120026.637000",
          "120026.640000",
          "120026.643000",
          "120026.646000",
          "120031.629000",
          "120031.632000",
          "120031.635000",
          "120031.638000",
          "120031.641000",
          "120031.644000",
          "120031.647000",
          "120036.629000",
          "120036.632000",
          "120036.635000",
          "120036.638000",
          "120036.641000",
          "120036.644000",
          "120036.647000",
          "120041.628000",
          "120041.631000",
          "120041.634000",
          "120041.637000",
          "120041.640000",
          "120041.643000",
          "120041.646000",
          "120046.629000",
          "120046.632000",
          "120046.635000",
          "120046.638000",
          "120046.641000",
          "120046.644000",
          "120046.647000",
          "120051.629000",
          "120051.632000",
          "120051.635000",
          "120051.638000",
          "120051.641000",
          "120051.644000",
          "120051.647000",
          "120056.629000",
          "120056.644000",
          "120056.647000",
          "120056.650000",
          "120056.653000",
          "120056.656000",
          "120056.659000",
          "120101.628000",
          "120101.631000",
          "120101.634000",
          "120101.637000",
          "120101.640000",
          "120101.643000",
          "120101.646000",
          "120106.629000",
          "120106.632000",
          "120106.635000",
          "120106.638000",
          "120106.641000",
          "120106.644000",
          "120106.647000",
          "120111.629000",
          "120111.632000",
          "120111.635000",
          "120111.638000",
          "120111.641000",
          "120111.644000",
          "120111.647000",
          "120116.628000",
          "120116.631000",
          "120116.634000",
          "120116.637000",
          "120116.640000",
          "120116.643000",
          "120116.646000",
          "120121.629000",
          "120121.632000",
          "120121.635000",
          "120121.638000",
          "120121.641000",
          "120121.644000",
          "120121.647000",
          "120126.629000",
          "120126.632000",
          "120126.635000",
          "120126.638000",
          "120126.641000",
          "120126.644000",
          "120126.647000",
          "120131.629000",
          "120131.632000",
          "120131.635000",
          "120131.638000",
          "120131.641000",
          "120131.644000",
          "120131.647000",
          "120131.650000",
          "120136.628000",
          "120136.631000",
          "120136.634000",
          "120136.637000",
          "120136.640000",
          "120136.643000",
          "120136.646000",
          "120141.629000",
          "120141.632000",
          "120141.635000",
          "120141.638000",
          "120141.641000",
          "120143.996000",
          "120144.003000",
          "120144.007000"
        ],
        "InstanceNumber": [
          1,
          2,
          3,
          4,
          5,
          6,
          7,
          8,
          9,
          10,
          11,
          12,
          13,
          14,
          15,
          16,
          17,
          18,
          19,
          20,
          21,
          22,
          23,
          24,
          25,
          26,
          27,
          28,
          29,
          30,
          31,
          32,
          33,
          34,
          35,
          36,
          37,
          38,
          39,
          40,
          41,
          42,
          43,
          44,
          45,
          46,
          47,
          48,
          49,
          50,
          51,
          52,
          53,
          54,
          55,
          56,
          57,
          58,
          59,
          60,
          61,
          62,
          63,
          64,
          65,
          66,
          67,
          68,
          69,
          70,
          71,
          72,
          73,
          74,
          75,
          76,
          77,
          78,
          79,
          80,
          81,
          82,
          83,
          84,
          85,
          86,
          87,
          88,
          89,
          90,
          91,
          92,
          93,
          94,
          95,
          96,
          97,
          98,
          99,
          100,
          101,
          102,
          103,
          104,
          105,
          106,
          107,
          108,
          109,
          110,
          111,
          112,
          113,
          114,
          115,
          116,
          117,
          118,
          119,
          120,
          121,
          122,
          123,
          124,
          125,
          126,
          127,
          128,
          129,
          130,
          131,
          132,
          133,
          134,
          135,
          136,
          137,
          138,
          139,
          140,
          141,
          142,
          143,
          144,
          145,
          146,
          147,
          148,
          149,
          150,
          151,
          152,
          153,
          154,
          155,
          156,
          157,
          158,
          159,
          160,
          161,
          162,
          163,
          164,
          165,
          166,
          167,
          168,
          169,
          170,
          171,
          172,
          173,
          174,
          175,
          176,
          177,
          178,
          179,
          180,
          181,
          182,
          183,
          184,
          185,
          186,
          187,
          188,
          189,
          190,
          191,
          192
        ],
        "LargestImagePixelValue": [
          33484,
          32832,
          32429,
          33349,
          32166,
          32559,
          32292,
          32428,
          31593,
          31934,
          31254,
          31155,
          31152,
          31147,
          33052,
          31960,
          31938,
          33196,
          32756,
          32628,
          35010,
          35761,
          35655,
          32751,
          32065,
          32294,
          32274,
          32504,
          32445,
          31186,
          30591,
          32452,
          31733,
          33237,
          33038,
          31532,
          31442,
          31650,
          31520,
          31888,
          31929,
          32849,
          32790,
          32047,
          31583,
          32544,
          32286,
          31108,
          31825,
          31335,
          33087,
          33565,
          33849,
          32518,
          38013,
          32421,
          33667,
          32343,
          33942,
          31074,
          32583,
          32566,
          31026,
          32839,
          32842,
          33525,
          33493,
          33469,
          32081,
          33674,
          31287,
          31298,
          31541,
          32003,
          31310,
          34081,
          31502,
          35658,
          31482,
          32805,
          34263,
          34647,
          33900,
          32879,
