{
  "aor": 0.0004754736842105263,
  "aqi": 0.003974045894736843,
  "bids_meta": {
    "AcquisitionMatrixPE": 104,
    "AcquisitionNumber": 1,
    "AcquisitionTime": "14:32:34.442500",
    "BandwidthPerPixelPhaseEncode": 16.578,
    "BaseResolution": 104,
    "BodyPartExamined": "BRAIN",
    "CogAtlasID": "TODO",
    "ConsistencyInfo": "N4_VE11C_LATEST_20160120",
    "ConversionSoftware": "dcm2niix",
    "ConversionSoftwareVersion": "v1.0.20190902",
    "DerivedVendorReportedEchoSpacing": 0.000580009,
    "DeviceSerialNumber": "166018",
    "DwellTime": 2.1e-06,
    "EchoTime": 0.037,
    "EchoTrainLength": 104,
    "EffectiveEchoSpacing": 0.000580009,
    "FlipAngle": 68,
    "ImageComments": "Unaliased_MB6_PE3_LB",
    "ImageOrientationPatientDICOM": [
      0.995229,
      0.0971268,
      0.00926141,
      -0.0882967,
      0.936982,
      -0.338036
    ],
    "ImageType": [
      "ORIGINAL",
      "PRIMARY",
      "M",
      "MB",
      "ND",
      "MOSAIC"
    ],
    "ImagingFrequency": 123.191,
    "InPlanePhaseEncodingDirectionDICOM": "COL",
    "InstitutionAddress": "Washington_Place_6_NYC_NYC_US_10003",
    "InstitutionName": "NYU_-_CBI",
    "InstitutionalDepartmentName": "Department",
    "MRAcquisitionType": "2D",
    "MagneticFieldStrength": 3,
    "Manufacturer": "Siemens",
    "ManufacturersModelName": "Prisma",
    "Modality": "MR",
    "MultibandAccelerationFactor": 6,
    "NumberOfVolumes": 192,
    "PartialFourier": 1,
    "PatientPosition": "HFS",
    "PercentPhaseFOV": 100,
    "PhaseEncodingDirection": "j",
    "PhaseEncodingSteps": 104,
    "PhaseResolution": 1,
    "PixelBandwidth": 2290,
    "ProcedureStepDescription": "Investigators_Winawer",
    "ProtocolName": "cmrr_mbepi_s6_2mm_66sl_PA_task-prf",
    "PulseSequenceDetails": "%CustomerSeq%_cmrr_mbep2d_bold",
    "ReceiveCoilActiveElements": "HC1-7",
    "ReceiveCoilName": "HeadNeck_64",
    "ReconMatrixPE": 104,
    "RepetitionTime": 1,
    "SAR": 0.0613603,
    "ScanOptions": "FS",
    "ScanningSequence": "EP",
    "SequenceName": "epfid2d1_104",
    "SequenceVariant": "SK_SS",
    "SeriesDescription": "cmrr_mbepi_s6_2mm_66sl_PA_task-prf",
    "SeriesNumber": 10,
    "ShimSetting": [
      282,
      -12509,
      -8541,
      233,
      -34,
      145,
      -218,
      24
    ],
    "SliceThickness": 2,
    "SliceTiming": [
      0,
      0.535,
      0.09,
      0.625,
      0.18,
      0.7125,
      0.2675,
      0.8025,
      0.3575,
      0.8925,
      0.4475,
      0,
      0.535,
      0.09,
      0.625,
      0.18,
      0.7125,
      0.2675,
      0.8025,
      0.3575,
      0.8925,
      0.4475,
      0,
      0.535,
      0.09,
      0.625,
      0.18,
      0.7125,
      0.2675,
      0.8025,
      0.3575,
      0.8925,
      0.4475,
      0,
      0.535,
      0.09,
      0.625,
      0.18,
      0.7125,
      0.2675,
      0.8025,
      0.3575,
      0.8925,
      0.4475,
      0,
      0.535,
      0.09,
      0.625,
      0.18,
      0.7125,
      0.2675,
      0.8025,
      0.3575,
      0.8925,
      0.4475,
      0,
      0.535,
      0.09,
      0.625,
      0.18,
      0.7125,
      0.2675,
      0.8025,
      0.3575,
      0.8925,
      0.4475
    ],
    "SoftwareVersions": "syngo_MR_E11",
    "SpacingBetweenSlices": 2,
    "StationName": "AWP166018",
    "TaskName": "prf",
    "TotalReadoutTime": 0.0597409,
    "TxRefAmp": 202.47,
    "WipMemBlock": "3763a35e-f073-4bba-9922-188f13fe604f||Sequence: R016 ve11c/master r/8780670; Nov 27 2017 15:05:12 by eja",
    "acq_id": "PA",
    "dataset": "unknown",
    "dcmmeta_affine": [
      [
        -1.9904578924179077,
        -0.17659330368041992,
        0.08302035182714462,
        109.17908477783203
      ],
      [
        -0.19425363838672638,
        1.8739638328552246,
        -0.6712117791175842,
        -57.767791748046875
      ],
      [
        0.01852281205356121,
        0.676072895526886,
        1.8821748495101929,
        -72.56938171386719
      ],
      [
        0.0,
        0.0,
        0.0,
        1.0
      ]
    ],
    "dcmmeta_reorient_transform": [
      [
        0.0,
        -1.0,
        0.0,
        103.0
      ],
      [
        1.0,
        0.0,
        0.0,
        0.0
      ],
      [
        0.0,
        0.0,
        1.0,
        0.0
      ],
      [
        0.0,
        0.0,
        0.0,
        1.0
      ]
    ],
    "dcmmeta_shape": [
      104,
      104,
      66,
      192
    ],
    "dcmmeta_slice_dim": 2,
    "dcmmeta_version": 0.6,
    "global": {
      "const": {
        "AccessionNumber": "k2me5qyk",
        "AcquisitionMatrix": [
          104,
          0,
          0,
          104
        ],
        "AngioFlag": "N",
        "BitsAllocated": 16,
        "BitsStored": 16,
        "BodyPartExamined": "BRAIN",
        "Columns": 936,
        "EchoNumbers": 1,
        "EchoTime": 37.0,
        "EchoTrainLength": 104,
        "FlipAngle": 68.0,
        "HighBit": 15,
        "ImageOrientationPatient": [
          0.99522892186994,
          0.09712682142501,
          0.00926140558799,
          -0.0882966502962,
          0.93698189006321,
          -0.3380364466149
        ],
        "ImagePositionPatient": [
          -845.55762851472,
          -995.62892472934,
          270.60696211336
        ],
        "ImageType": [
          "ORIGINAL",
          "PRIMARY",
          "M",
          "MB",
          "ND",
          "MOSAIC"
        ],
        "ImagedNucleus": "1H",
        "ImagingFrequency": 123.190764,
        "InPlanePhaseEncodingDirection": "COL",
        "MRAcquisitionType": "2D",
        "MagneticFieldStrength": 3.0,
        "Manufacturer": "SIEMENS",
        "ManufacturerModelName": "Prisma",
        "Modality": "MR",
        "NumberOfAverages": 1.0,
        "NumberOfPhaseEncodingSteps": 104,
        "PercentPhaseFieldOfView": 100.0,
        "PercentSampling": 100.0,
        "PerformedProcedureStepStartTime": "142122.244000",
        "PhotometricInterpretation": "MONOCHROME2",
        "PixelBandwidth": 2290.0,
        "PixelRepresentation": 0,
        "PixelSpacing": [
          2.0,
          2.0
        ],
        "ProtocolName": "cmrr_mbepi_s6_2mm_66sl_PA_task-prf",
        "RepetitionTime": 1000.0,
        "Rows": 936,
        "SAR": 0.06136028033921,
        "SamplesPerPixel": 1,
        "ScanOptions": "FS",
        "ScanningSequence": "EP",
        "SequenceName": "epfid2d1_104",
        "SequenceVariant": [
          "SK",
          "SS"
        ],
        "SeriesDescription": "cmrr_mbepi_s6_2mm_66sl_PA_task-prf",
        "SeriesNumber": 10,
        "SeriesTime": "143352.812000",
        "SliceLocation": -44.37487781962,
        "SliceThickness": 2.0,
        "SmallestImagePixelValue": 0,
        "SoftwareVersions": "syngo MR E11",
        "SpacingBetweenSlices": 1.9999999647652,
        "SpecificCharacterSet": "ISO_IR 100",
        "StudyID": "1",
        "StudyTime": "142122.195000",
        "TransmitCoilName": "Body",
        "VariableFlipAngleFlag": "N",
        "WindowCenterWidthExplanation": "Algo1",
        "dBdt": 0.0
      },
      "slices": {}
    },
    "modality": "bold",
    "run_id": 2,
    "session_id": "nyu3t01",
    "subject_id": "wlsubj006",
    "task_id": "prf",
    "time": {
      "samples": {
        "AcquisitionNumber": [
          1,
          2,
          3,
          4,
          5,
          6,
          7,
          8,
          9,
          10,
          11,
          12,
          13,
          14,
          15,
          16,
          17,
          18,
          19,
          20,
          21,
          22,
          23,
          24,
          25,
          26,
          27,
          28,
          29,
          30,
          31,
          32,
          33,
          34,
          35,
          36,
          37,
          38,
          39,
          40,
          41,
          42,
          43,
          44,
          45,
          46,
          47,
          48,
          49,
          50,
          51,
          52,
          53,
          54,
          55,
          56,
          57,
          58,
          59,
          60,
          61,
          62,
          63,
          64,
          65,
          66,
          67,
          68,
          69,
          70,
          71,
          72,
          73,
          74,
          75,
          76,
          77,
          78,
          79,
          80,
          81,
          82,
          83,
          84,
          85,
          86,
          87,
          88,
          89,
          90,
          91,
          92,
          93,
          94,
          95,
          96,
          97,
          98,
          99,
          100,
          101,
          102,
          103,
          104,
          105,
          106,
          107,
          108,
          109,
          110,
          111,
          112,
          113,
          114,
          115,
          116,
          117,
          118,
          119,
          120,
          121,
          122,
          123,
          124,
          125,
          126,
          127,
          128,
          129,
          130,
          131,
          132,
          133,
          134,
          135,
          136,
          137,
          138,
          139,
          140,
          141,
          142,
          143,
          144,
          145,
          146,
          147,
          148,
          149,
          150,
          151,
          152,
          153,
          154,
          155,
          156,
          157,
          158,
          159,
          160,
          161,
          162,
          163,
          164,
          165,
          166,
          167,
          168,
          169,
          170,
          171,
          172,
          173,
          174,
          175,
          176,
          177,
          178,
          179,
          180,
          181,
          182,
          183,
          184,
          185,
          186,
          187,
          188,
          189,
          190,
          191,
          192
        ],
        "AcquisitionTime": [
          "143234.442500",
          "143235.442500",
          "143236.442500",
          "143237.442500",
          "143238.442500",
          "143239.442500",
          "143240.442500",
          "143241.442500",
          "143242.442500",
          "143243.442500",
          "143244.442500",
          "143245.442500",
          "143246.442500",
          "143247.442500",
          "143248.442500",
          "143249.442500",
          "143250.442500",
          "143251.442500",
          "143252.442500",
          "143253.442500",
          "143254.442500",
          "143255.442500",
          "143256.442500",
          "143257.442500",
          "143258.442500",
          "143259.442500",
          "143300.442500",
          "143301.442500",
          "143302.442500",
          "143303.442500",
          "143304.442500",
          "143305.442500",
          "143306.442500",
          "143307.442500",
          "143308.442500",
          "143309.442500",
          "143310.442500",
          "143311.442500",
          "143312.442500",
          "143313.442500",
          "143314.442500",
          "143315.442500",
          "143316.442500",
          "143317.442500",
          "143318.442500",
          "143319.442500",
          "143320.442500",
          "143321.442500",
          "143322.442500",
          "143323.442500",
          "143324.442500",
          "143325.442500",
          "143326.442500",
          "143327.442500",
          "143328.442500",
          "143329.442500",
          "143330.442500",
          "143331.442500",
          "143332.442500",
          "143333.442500",
          "143334.442500",
          "143335.442500",
          "143336.442500",
          "143337.442500",
          "143338.442500",
          "143339.442500",
          "143340.442500",
          "143341.442500",
          "143342.442500",
          "143343.442500",
          "143344.442500",
          "143345.442500",
          "143346.442500",
          "143347.442500",
          "143348.442500",
          "143349.442500",
          "143350.442500",
          "143351.442500",
          "143352.442500",
          "143353.442500",
          "143354.442500",
          "143355.442500",
          "143356.442500",
          "143357.442500",
          "143358.442500",
          "143359.442500",
          "143400.442500",
          "143401.442500",
          "143402.442500",
          "143403.442500",
          "143404.442500",
          "143405.442500",
          "143406.442500",
          "143407.442500",
          "143408.442500",
          "143409.442500",
          "143410.442500",
          "143411.442500",
          "143412.442500",
          "143413.442500",
          "143414.442500",
          "143415.442500",
          "143416.442500",
          "143417.442500",
          "143418.442500",
          "143419.442500",
          "143420.442500",
          "143421.442500",
          "143422.442500",
          "143423.442500",
          "143424.442500",
          "143425.442500",
          "143426.442500",
          "143427.442500",
          "143428.442500",
          "143429.442500",
          "143430.442500",
          "143431.442500",
          "143432.442500",
          "143433.442500",
          "143434.442500",
          "143435.442500",
          "143436.442500",
          "143437.442500",
          "143438.442500",
          "143439.442500",
          "143440.442500",
          "143441.442500",
          "143442.442500",
          "143443.442500",
          "143444.442500",
          "143445.442500",
          "143446.442500",
          "143447.442500",
          "143448.442500",
          "143449.442500",
          "143450.442500",
          "143451.442500",
          "143452.442500",
          "143453.442500",
          "143454.442500",
          "143455.442500",
          "143456.442500",
          "143457.442500",
          "143458.442500",
          "143459.442500",
          "143500.442500",
          "143501.442500",
          "143502.442500",
          "143503.442500",
          "143504.442500",
          "143505.442500",
          "143506.442500",
          "143507.442500",
          "143508.442500",
          "143509.442500",
          "143510.442500",
          "143511.442500",
          "143512.442500",
          "143513.442500",
          "143514.442500",
          "143515.442500",
          "143516.442500",
          "143517.442500",
          "143518.442500",
          "143519.442500",
          "143520.442500",
          "143521.442500",
          "143522.442500",
          "143523.442500",
          "143524.442500",
          "143525.442500",
          "143526.442500",
          "143527.442500",
          "143528.442500",
          "143529.442500",
          "143530.442500",
          "143531.442500",
          "143532.442500",
          "143533.442500",
          "143534.442500",
          "143535.442500",
          "143536.442500",
          "143537.442500",
          "143538.442500",
          "143539.442500",
          "143540.442500",
          "143541.442500",
          "143542.442500",
          "143543.442500",
          "143544.442500",
          "143545.442500"
        ],
        "ContentTime": [
          "143352.815000",
          "143352.818000",
          "143352.821000",
          "143352.824000",
          "143352.827000",
          "143352.834000",
          "143352.837000",
          "143352.840000",
          "143352.843000",
          "143352.846000",
          "143352.849000",
          "143352.852000",
          "143352.855000",
          "143352.858000",
          "143352.861000",
          "143352.864000",
          "143352.867000",
          "143352.869000",
          "143352.877000",
          "143352.880000",
          "143352.883000",
          "143352.886000",
          "143352.889000",
          "143352.892000",
          "143352.895000",
          "143352.898000",
          "143352.901000",
          "143352.904000",
          "143352.907000",
          "143352.910000",
          "143352.913000",
          "143352.916000",
          "143352.919000",
          "143352.922000",
          "143352.925000",
          "143352.928000",
          "143352.931000",
          "143352.934000",
          "143352.937000",
          "143352.940000",
          "143412.789000",
          "143412.792000",
          "143412.795000",
          "143412.798000",
          "143412.801000",
          "143412.804000",
          "143412.807000",
          "143412.810000",
          "143412.813000",
          "143412.816000",
          "143412.819000",
          "143412.822000",
          "143412.825000",
          "143412.828000",
          "143412.831000",
          "143412.834000",
          "143412.837000",
          "143412.840000",
          "143412.846000",
          "143412.849000",
          "143412.852000",
          "143412.855000",
          "143412.858000",
          "143412.861000",
          "143412.864000",
          "143412.867000",
          "143412.870000",
          "143412.873000",
          "143432.789000",
          "143432.792000",
          "143432.795000",
          "143432.798000",
          "143432.801000",
          "143432.804000",
          "143432.807000",
          "143432.810000",
          "143432.813000",
          "143432.816000",
          "143432.819000",
          "143432.822000",
          "143432.825000",
          "143432.828000",
          "143432.831000",
          "143432.834000",
          "143432.837000",
          "143432.840000",
          "143432.843000",
          "143432.846000",
          "143432.849000",
          "143432.852000",
          "143432.855000",
          "143432.858000",
          "143432.861000",
          "143432.864000",
          "143432.867000",
          "143432.870000",
          "143452.789000",
          "143452.792000",
          "143452.795000",
          "143452.798000",
          "143452.801000",
          "143452.804000",
          "143452.807000",
          "143452.810000",
          "143452.813000",
          "143452.816000",
          "143452.819000",
          "143452.822000",
          "143452.825000",
          "143452.828000",
          "143452.831000",
          "143452.834000",
          "143452.837000",
          "143452.840000",
          "143452.843000",
          "143452.846000",
          "143452.849000",
          "143452.852000",
          "143452.855000",
          "143452.858000",
          "143452.861000",
          "143452.864000",
          "143452.867000",
          "143452.870000",
          "143512.789000",
          "143512.792000",
          "143512.795000",
          "143512.798000",
          "143512.801000",
          "143512.804000",
          "143512.807000",
          "143512.810000",
          "143512.813000",
          "143512.816000",
          "143512.819000",
          "143512.822000",
          "143512.825000",
          "143512.828000",
          "143512.831000",
          "143512.834000",
          "143512.837000",
          "143512.840000",
          "143512.843000",
          "143512.846000",
          "143512.849000",
          "143512.852000",
          "143512.855000",
          "143512.858000",
          "143512.861000",
          "143512.864000",
          "143512.867000",
          "143512.870000",
          "143512.873000",
          "143532.789000",
          "143532.792000",
          "143532.795000",
          "143532.798000",
          "143532.811000",
          "143532.814000",
          "143532.817000",
          "143532.820000",
          "143532.823000",
          "143532.826000",
          "143532.829000",
          "143532.832000",
          "143532.835000",
          "143532.838000",
          "143532.841000",
          "143532.844000",
          "143532.847000",
          "143532.850000",
          "143532.853000",
          "143532.856000",
          "143532.859000",
          "143532.862000",
          "143532.865000",
          "143532.868000",
          "143547.254000",
          "143547.258000",
          "143547.261000",
          "143547.264000",
          "143547.267000",
          "143547.270000",
          "143547.273000",
          "143547.276000",
          "143547.279000",
          "143547.282000",
          "143547.285000",
          "143547.288000",
          "143547.291000",
          "143547.294000",
          "143547.297000"
        ],
        "InstanceCreationTime": [
          "143352.815000",
          "143352.818000",
          "143352.821000",
          "143352.824000",
          "143352.827000",
          "143352.834000",
          "143352.837000",
          "143352.840000",
          "143352.843000",
          "143352.846000",
          "143352.849000",
          "143352.852000",
          "143352.855000",
          "143352.858000",
          "143352.861000",
          "143352.864000",
          "143352.867000",
          "143352.869000",
          "143352.877000",
          "143352.880000",
          "143352.883000",
          "143352.886000",
          "143352.889000",
          "143352.892000",
          "143352.895000",
          "143352.898000",
          "143352.901000",
          "143352.904000",
          "143352.907000",
          "143352.910000",
          "143352.913000",
          "143352.916000",
          "143352.919000",
          "143352.922000",
          "143352.925000",
          "143352.928000",
          "143352.931000",
          "143352.934000",
          "143352.937000",
          "143352.940000",
          "143412.789000",
          "143412.792000",
          "143412.795000",
          "143412.798000",
          "143412.801000",
          "143412.804000",
          "143412.807000",
          "143412.810000",
          "143412.813000",
          "143412.816000",
          "143412.819000",
          "143412.822000",
          "143412.825000",
          "143412.828000",
          "143412.831000",
          "143412.834000",
          "143412.837000",
          "143412.840000",
          "143412.846000",
          "143412.849000",
          "143412.852000",
          "143412.855000",
          "143412.858000",
          "143412.861000",
          "143412.864000",
          "143412.867000",
          "143412.870000",
          "143412.873000",
          "143432.789000",
          "143432.792000",
          "143432.795000",
          "143432.798000",
          "143432.801000",
          "143432.804000",
          "143432.807000",
          "143432.810000",
          "143432.813000",
          "143432.816000",
          "143432.819000",
          "143432.822000",
          "143432.825000",
          "143432.828000",
          "143432.831000",
          "143432.834000",
          "143432.837000",
          "143432.840000",
          "143432.843000",
          "143432.846000",
          "143432.849000",
          "143432.852000",
          "143432.855000",
          "143432.858000",
          "143432.861000",
          "143432.864000",
          "143432.867000",
          "143432.870000",
          "143452.789000",
          "143452.792000",
          "143452.795000",
          "143452.798000",
          "143452.801000",
          "143452.804000",
          "143452.807000",
          "143452.810000",
          "143452.813000",
          "143452.816000",
          "143452.819000",
          "143452.822000",
          "143452.825000",
          "143452.828000",
          "143452.831000",
          "143452.834000",
          "143452.837000",
          "143452.840000",
          "143452.843000",
          "143452.846000",
          "143452.849000",
          "143452.852000",
          "143452.855000",
          "143452.858000",
          "143452.861000",
          "143452.864000",
          "143452.867000",
          "143452.870000",
          "143512.789000",
          "143512.792000",
          "143512.795000",
          "143512.798000",
          "143512.801000",
          "143512.804000",
          "143512.807000",
          "143512.810000",
          "143512.813000",
          "143512.816000",
          "143512.819000",
          "143512.822000",
          "143512.825000",
          "143512.828000",
          "143512.831000",
          "143512.834000",
          "143512.837000",
          "143512.840000",
          "143512.843000",
          "143512.846000",
          "143512.849000",
          "143512.852000",
          "143512.855000",
          "143512.858000",
          "143512.861000",
          "143512.864000",
          "143512.867000",
          "143512.870000",
          "143512.873000",
          "143532.789000",
          "143532.792000",
          "143532.795000",
          "143532.798000",
          "143532.811000",
          "143532.814000",
          "143532.817000",
          "143532.820000",
          "143532.823000",
          "143532.826000",
          "143532.829000",
          "143532.832000",
          "143532.835000",
          "143532.838000",
          "143532.841000",
          "143532.844000",
          "143532.847000",
          "143532.850000",
          "143532.853000",
          "143532.856000",
          "143532.859000",
          "143532.862000",
          "143532.865000",
          "143532.868000",
          "143547.254000",
          "143547.258000",
          "143547.261000",
          "143547.264000",
          "143547.267000",
          "143547.270000",
          "143547.273000",
          "143547.276000",
          "143547.279000",
          "143547.282000",
          "143547.285000",
          "143547.288000",
          "143547.291000",
          "143547.294000",
          "143547.297000"
        ],
        "InstanceNumber": [
          1,
          2,
          3,
          4,
          5,
          6,
          7,
          8,
          9,
          10,
          11,
          12,
          13,
          14,
          15,
          16,
          17,
          18,
          19,
          20,
          21,
          22,
          23,
          24,
          25,
          26,
          27,
          28,
          29,
          30,
          31,
          32,
          33,
          34,
          35,
          36,
          37,
          38,
          39,
          40,
          41,
          42,
          43,
          44,
          45,
          46,
          47,
          48,
          49,
          50,
          51,
          52,
          53,
          54,
          55,
          56,
          57,
          58,
          59,
          60,
          61,
          62,
          63,
          64,
          65,
          66,
          67,
          68,
          69,
          70,
          71,
          72,
          73,
          74,
          75,
          76,
          77,
          78,
          79,
          80,
          81,
          82,
          83,
          84,
          85,
          86,
          87,
          88,
          89,
          90,
          91,
          92,
          93,
          94,
          95,
          96,
          97,
          98,
          99,
          100,
          101,
          102,
          103,
          104,
          105,
          106,
          107,
          108,
          109,
          110,
          111,
          112,
          113,
          114,
          115,
          116,
          117,
          118,
          119,
          120,
          121,
          122,
          123,
          124,
          125,
          126,
          127,
          128,
          129,
          130,
          131,
          132,
          133,
          134,
          135,
          136,
          137,
          138,
          139,
          140,
          141,
          142,
          143,
          144,
          145,
          146,
          147,
          148,
          149,
          150,
          151,
          152,
          153,
          154,
          155,
          156,
          157,
          158,
          159,
          160,
          161,
          162,
          163,
          164,
          165,
          166,
          167,
          168,
          169,
          170,
          171,
          172,
          173,
          174,
          175,
          176,
          177,
          178,
          179,
          180,
          181,
          182,
          183,
          184,
          185,
          186,
          187,
          188,
          189,
          190,
          191,
          192
        ],
        "LargestImagePixelValue": [
          42565,
          41276,
          41683,
          41687,
          41517,
          41672,
          42332,
          41572,
          41328,
          41809,
          40953,
          40674,
          41569,
          41240,
          41550,
          41796,
          42338,
          41807,
          42143,
          42078,
          41664,
          41503,
          41320,
          41537,
          42024,
          42056,
          41441,
          41658,
          41488,
          41695,
          41231,
          41534,
          41345,
          41067,
          41491,
          41164,
          41799,
          41728,
          41395,
          42101,
          42133,
          41946,
          41892,
          41761,
          41670,
          41248,
          41468,
          41723,
          42048,
          41319,
          41440,
          41775,
          41588,
          41260,
          41306,
          41474,
          41466,
          41782,
          41406,
          41614,
          41200,
          41311,
          41952,
          41552,
          41965,
          42120,
          41985,
          41917,
          42363,
          42501,
          41515,
          41914,
          41491,
          42227,
          41986,
          42258,
          41734,
          41765,
          42077,
          41542,
          41879,
          41511,
