{
  "aor": 0.00298265625,
  "aqi": 0.008824554635416667,
  "bids_meta": {
    "AcquisitionMatrixPE": 104,
    "AcquisitionNumber": 1,
    "AcquisitionTime": "16:14:7.522500",
    "BandwidthPerPixelPhaseEncode": 16.578,
    "BaseResolution": 104,
    "BodyPartExamined": "BRAIN",
    "CogAtlasID": "TODO",
    "ConsistencyInfo": "N4_VE11C_LATEST_20160120",
    "ConversionSoftware": "dcm2niix",
    "ConversionSoftwareVersion": "v1.0.20190902",
    "DerivedVendorReportedEchoSpacing": 0.000580009,
    "DeviceSerialNumber": "166018",
    "DwellTime": 2.1e-06,
    "EchoTime": 0.037,
    "EchoTrainLength": 104,
    "EffectiveEchoSpacing": 0.000580009,
    "FlipAngle": 68,
    "ImageComments": "Unaliased_MB6_PE3_LB",
    "ImageOrientationPatientDICOM": [
      0.996859,
      0.0340115,
      -0.0715212,
      -0.0503243,
      0.969357,
      -0.240446
    ],
    "ImageType": [
      "ORIGINAL",
      "PRIMARY",
      "M",
      "MB",
      "ND",
      "MOSAIC"
    ],
    "ImagingFrequency": 123.191,
    "InPlanePhaseEncodingDirectionDICOM": "COL",
    "InstitutionAddress": "Washington_Place_6_NYC_NYC_US_10003",
    "InstitutionName": "NYU_-_CBI",
    "InstitutionalDepartmentName": "Department",
    "MRAcquisitionType": "2D",
    "MagneticFieldStrength": 3,
    "Manufacturer": "Siemens",
    "ManufacturersModelName": "Prisma",
    "Modality": "MR",
    "MultibandAccelerationFactor": 6,
    "NumberOfVolumes": 192,
    "PartialFourier": 1,
    "PatientPosition": "HFS",
    "PercentPhaseFOV": 100,
    "PhaseEncodingDirection": "j",
    "PhaseEncodingSteps": 104,
    "PhaseResolution": 1,
    "PixelBandwidth": 2290,
    "ProcedureStepDescription": "Investigators_Winawer",
    "ProtocolName": "cmrr_mbepi_task_prf",
    "PulseSequenceDetails": "%CustomerSeq%_cmrr_mbep2d_bold",
    "ReceiveCoilActiveElements": "HC1-7",
    "ReceiveCoilName": "HeadNeck_64",
    "ReconMatrixPE": 104,
    "RepetitionTime": 1,
    "SAR": 0.0858577,
    "ScanOptions": "FS",
    "ScanningSequence": "EP",
    "SequenceName": "epfid2d1_104",
    "SequenceVariant": "SK_SS",
    "SeriesDescription": "cmrr_mbepi_task_prf",
    "SeriesNumber": 8,
    "ShimSetting": [
      241,
      -12588,
      -8480,
      259,
      -54,
      56,
      -85,
      -21
    ],
    "SliceThickness": 2,
    "SliceTiming": [
      0,
      0.535,
      0.09,
      0.6225,
      0.1775,
      0.7125,
      0.2675,
      0.8025,
      0.355,
      0.89,
      0.445,
      0,
      0.535,
      0.09,
      0.6225,
      0.1775,
      0.7125,
      0.2675,
      0.8025,
      0.355,
      0.89,
      0.445,
      0,
      0.535,
      0.09,
      0.6225,
      0.1775,
      0.7125,
      0.2675,
      0.8025,
      0.355,
      0.89,
      0.445,
      0,
      0.535,
      0.09,
      0.6225,
      0.1775,
      0.7125,
      0.2675,
      0.8025,
      0.355,
      0.89,
      0.445,
      0,
      0.535,
      0.09,
      0.6225,
      0.1775,
      0.7125,
      0.2675,
      0.8025,
      0.355,
      0.89,
      0.445,
      0,
      0.535,
      0.09,
      0.6225,
      0.1775,
      0.7125,
      0.2675,
      0.8025,
      0.355,
      0.89,
      0.445
    ],
    "SoftwareVersions": "syngo_MR_E11",
    "SpacingBetweenSlices": 2,
    "StationName": "AWP166018",
    "TaskName": "prf",
    "TotalReadoutTime": 0.0597409,
    "TxRefAmp": 246.358,
    "WipMemBlock": "93768b83-6f7e-46e6-bb4e-cabb6e493ae3||Sequence: R016 ve11c/master r/8780670; Nov 27 2017 15:05:12 by eja",
    "acq_id": "PA",
    "dataset": "unknown",
    "dcmmeta_affine": [
      [
        -1.9937180280685425,
        -0.10064857453107834,
        -0.12230326235294342,
        113.70326232910156
      ],
      [
        -0.0680229589343071,
        1.9387143850326538,
        -0.4865793287754059,
        -69.42378997802734
      ],
      [
        -0.14304231107234955,
        0.48089131712913513,
        1.936048150062561,
        -52.05989456176758
      ],
      [
        0.0,
        0.0,
        0.0,
        1.0
      ]
    ],
    "dcmmeta_reorient_transform": [
      [
        0.0,
        -1.0,
        0.0,
        103.0
      ],
      [
        1.0,
        0.0,
        0.0,
        0.0
      ],
      [
        0.0,
        0.0,
        1.0,
        0.0
      ],
      [
        0.0,
        0.0,
        0.0,
        1.0
      ]
    ],
    "dcmmeta_shape": [
      104,
      104,
      66,
      192
    ],
    "dcmmeta_slice_dim": 2,
    "dcmmeta_version": 0.6,
    "global": {
      "const": {
        "AccessionNumber": "jk46q1x8",
        "AcquisitionMatrix": [
          104,
          0,
          0,
          104
        ],
        "AngioFlag": "N",
        "BitsAllocated": 16,
        "BitsStored": 16,
        "BodyPartExamined": "BRAIN",
        "Columns": 936,
        "EchoNumbers": 1,
        "EchoTime": 37.0,
        "EchoTrainLength": 104,
        "FlipAngle": 68.0,
        "HighBit": 15,
        "ImageOrientationPatient": [
          0.99685903916049,
          0.03401147973648,
          -0.0715211527464,
          -0.0503242891267,
          0.96935718613184,
          -0.2404456521097
        ],
        "ImagePositionPatient": [
          -890.85336994186,
          -965.06651767914,
          257.02829216873
        ],
        "ImageType": [
          "ORIGINAL",
          "PRIMARY",
          "M",
          "MB",
          "ND",
          "MOSAIC"
        ],
        "ImagedNucleus": "1H",
        "ImagingFrequency": 123.191041,
        "InPlanePhaseEncodingDirection": "COL",
        "MRAcquisitionType": "2D",
        "MagneticFieldStrength": 3.0,
        "Manufacturer": "SIEMENS",
        "ManufacturerModelName": "Prisma",
        "Modality": "MR",
        "NumberOfAverages": 1.0,
        "NumberOfPhaseEncodingSteps": 104,
        "PercentPhaseFieldOfView": 100.0,
        "PercentSampling": 100.0,
        "PerformedProcedureStepStartTime": "155124.855000",
        "PhotometricInterpretation": "MONOCHROME2",
        "PixelBandwidth": 2290.0,
        "PixelRepresentation": 0,
        "PixelSpacing": [
          2.0,
          2.0
        ],
        "ProtocolName": "cmrr_mbepi_task_prf",
        "RepetitionTime": 1000.0,
        "Rows": 936,
        "SAR": 0.08585768075614,
        "SamplesPerPixel": 1,
        "ScanOptions": "FS",
        "ScanningSequence": "EP",
        "SequenceName": "epfid2d1_104",
        "SequenceVariant": [
          "SK",
          "SS"
        ],
        "SeriesDescription": "cmrr_mbepi_task_prf",
        "SeriesNumber": 8,
        "SeriesTime": "161506.407000",
        "SliceLocation": -40.458278709386,
        "SliceThickness": 2.0,
        "SmallestImagePixelValue": 0,
        "SoftwareVersions": "syngo MR E11",
        "SpacingBetweenSlices": 1.9999999750047,
        "SpecificCharacterSet": "ISO_IR 100",
        "StudyID": "1",
        "StudyTime": "155124.723000",
        "TransmitCoilName": "Body",
        "VariableFlipAngleFlag": "N",
        "WindowCenterWidthExplanation": "Algo1",
        "dBdt": 0.0
      },
      "slices": {}
    },
    "modality": "bold",
    "run_id": 1,
    "session_id": "nyu3t01",
    "subject_id": "wlsubj057",
    "task_id": "prf",
    "time": {
      "samples": {
        "AcquisitionNumber": [
          1,
          2,
          3,
          4,
          5,
          6,
          7,
          8,
          9,
          10,
          11,
          12,
          13,
          14,
          15,
          16,
          17,
          18,
          19,
          20,
          21,
          22,
          23,
          24,
          25,
          26,
          27,
          28,
          29,
          30,
          31,
          32,
          33,
          34,
          35,
          36,
          37,
          38,
          39,
          40,
          41,
          42,
          43,
          44,
          45,
          46,
          47,
          48,
          49,
          50,
          51,
          52,
          53,
          54,
          55,
          56,
          57,
          58,
          59,
          60,
          61,
          62,
          63,
          64,
          65,
          66,
          67,
          68,
          69,
          70,
          71,
          72,
          73,
          74,
          75,
          76,
          77,
          78,
          79,
          80,
          81,
          82,
          83,
          84,
          85,
          86,
          87,
          88,
          89,
          90,
          91,
          92,
          93,
          94,
          95,
          96,
          97,
          98,
          99,
          100,
          101,
          102,
          103,
          104,
          105,
          106,
          107,
          108,
          109,
          110,
          111,
          112,
          113,
          114,
          115,
          116,
          117,
          118,
          119,
          120,
          121,
          122,
          123,
          124,
          125,
          126,
          127,
          128,
          129,
          130,
          131,
          132,
          133,
          134,
          135,
          136,
          137,
          138,
          139,
          140,
          141,
          142,
          143,
          144,
          145,
          146,
          147,
          148,
          149,
          150,
          151,
          152,
          153,
          154,
          155,
          156,
          157,
          158,
          159,
          160,
          161,
          162,
          163,
          164,
          165,
          166,
          167,
          168,
          169,
          170,
          171,
          172,
          173,
          174,
          175,
          176,
          177,
          178,
          179,
          180,
          181,
          182,
          183,
          184,
          185,
          186,
          187,
          188,
          189,
          190,
          191,
          192
        ],
        "AcquisitionTime": [
          "161407.522500",
          "161408.522500",
          "161409.522500",
          "161410.522500",
          "161411.522500",
          "161412.522500",
          "161413.522500",
          "161414.522500",
          "161415.522500",
          "161416.522500",
          "161417.522500",
          "161418.522500",
          "161419.522500",
          "161420.522500",
          "161421.522500",
          "161422.522500",
          "161423.522500",
          "161424.522500",
          "161425.522500",
          "161426.522500",
          "161427.522500",
          "161428.522500",
          "161429.522500",
          "161430.522500",
          "161431.522500",
          "161432.522500",
          "161433.522500",
          "161434.522500",
          "161435.522500",
          "161436.522500",
          "161437.522500",
          "161438.522500",
          "161439.522500",
          "161440.522500",
          "161441.522500",
          "161442.522500",
          "161443.522500",
          "161444.522500",
          "161445.522500",
          "161446.522500",
          "161447.522500",
          "161448.522500",
          "161449.522500",
          "161450.522500",
          "161451.522500",
          "161452.522500",
          "161453.522500",
          "161454.522500",
          "161455.522500",
          "161456.522500",
          "161457.522500",
          "161458.522500",
          "161459.522500",
          "161500.522500",
          "161501.522500",
          "161502.522500",
          "161503.522500",
          "161504.522500",
          "161505.522500",
          "161506.522500",
          "161507.522500",
          "161508.522500",
          "161509.522500",
          "161510.522500",
          "161511.522500",
          "161512.522500",
          "161513.522500",
          "161514.522500",
          "161515.522500",
          "161516.522500",
          "161517.522500",
          "161518.522500",
          "161519.522500",
          "161520.522500",
          "161521.522500",
          "161522.522500",
          "161523.522500",
          "161524.522500",
          "161525.522500",
          "161526.522500",
          "161527.522500",
          "161528.522500",
          "161529.522500",
          "161530.522500",
          "161531.522500",
          "161532.522500",
          "161533.522500",
          "161534.522500",
          "161535.522500",
          "161536.522500",
          "161537.522500",
          "161538.522500",
          "161539.522500",
          "161540.522500",
          "161541.522500",
          "161542.522500",
          "161543.522500",
          "161544.522500",
          "161545.522500",
          "161546.522500",
          "161547.522500",
          "161548.522500",
          "161549.522500",
          "161550.522500",
          "161551.522500",
          "161552.522500",
          "161553.522500",
          "161554.522500",
          "161555.522500",
          "161556.522500",
          "161557.522500",
          "161558.522500",
          "161559.522500",
          "161600.522500",
          "161601.522500",
          "161602.522500",
          "161603.522500",
          "161604.522500",
          "161605.522500",
          "161606.522500",
          "161607.522500",
          "161608.522500",
          "161609.522500",
          "161610.522500",
          "161611.522500",
          "161612.522500",
          "161613.522500",
          "161614.522500",
          "161615.522500",
          "161616.522500",
          "161617.522500",
          "161618.522500",
          "161619.522500",
          "161620.522500",
          "161621.522500",
          "161622.522500",
          "161623.522500",
          "161624.522500",
          "161625.522500",
          "161626.522500",
          "161627.522500",
          "161628.522500",
          "161629.522500",
          "161630.522500",
          "161631.522500",
          "161632.522500",
          "161633.522500",
          "161634.522500",
          "161635.522500",
          "161636.522500",
          "161637.522500",
          "161638.522500",
          "161639.522500",
          "161640.522500",
          "161641.522500",
          "161642.522500",
          "161643.522500",
          "161644.522500",
          "161645.522500",
          "161646.522500",
          "161647.522500",
          "161648.522500",
          "161649.522500",
          "161650.522500",
          "161651.522500",
          "161652.522500",
          "161653.522500",
          "161654.522500",
          "161655.522500",
          "161656.522500",
          "161657.522500",
          "161658.522500",
          "161659.522500",
          "161700.522500",
          "161701.522500",
          "161702.522500",
          "161703.522500",
          "161704.522500",
          "161705.522500",
          "161706.522500",
          "161707.522500",
          "161708.522500",
          "161709.522500",
          "161710.522500",
          "161711.522500",
          "161712.522500",
          "161713.522500",
          "161714.522500",
          "161715.522500",
          "161716.522500",
          "161717.522500",
          "161718.522500"
        ],
        "ContentTime": [
          "161506.410000",
          "161506.414000",
          "161506.417000",
          "161506.420000",
          "161506.423000",
          "161506.426000",
          "161511.381000",
          "161511.384000",
          "161511.393000",
          "161511.396000",
          "161511.400000",
          "161511.403000",
          "161511.406000",
          "161516.380000",
          "161516.384000",
          "161516.387000",
          "161516.390000",
          "161516.399000",
          "161516.402000",
          "161516.405000",
          "161521.380000",
          "161521.383000",
          "161521.386000",
          "161521.389000",
          "161521.392000",
          "161521.395000",
          "161521.398000",
          "161526.381000",
          "161526.384000",
          "161526.387000",
          "161526.390000",
          "161526.393000",
          "161526.396000",
          "161526.399000",
          "161531.381000",
          "161531.384000",
          "161531.388000",
          "161531.391000",
          "161531.394000",
          "161531.397000",
          "161531.400000",
          "161536.380000",
          "161536.383000",
          "161536.386000",
          "161536.389000",
          "161536.392000",
          "161536.395000",
          "161536.398000",
          "161541.381000",
          "161541.384000",
          "161541.387000",
          "161541.390000",
          "161541.393000",
          "161541.396000",
          "161541.399000",
          "161546.381000",
          "161546.384000",
          "161546.387000",
          "161546.391000",
          "161546.394000",
          "161546.397000",
          "161546.400000",
          "161551.380000",
          "161551.383000",
          "161551.386000",
          "161551.389000",
          "161551.392000",
          "161551.395000",
          "161551.406000",
          "161556.380000",
          "161556.383000",
          "161556.386000",
          "161556.389000",
          "161556.392000",
          "161556.395000",
          "161556.398000",
          "161601.381000",
          "161601.384000",
          "161601.387000",
          "161601.390000",
          "161601.394000",
          "161601.397000",
          "161601.400000",
          "161606.381000",
          "161606.384000",
          "161606.387000",
          "161606.390000",
          "161606.393000",
          "161606.396000",
          "161606.399000",
          "161611.380000",
          "161611.383000",
          "161611.386000",
          "161611.389000",
          "161611.392000",
          "161611.395000",
          "161611.398000",
          "161616.381000",
          "161616.384000",
          "161616.387000",
          "161616.390000",
          "161616.393000",
          "161616.397000",
          "161616.400000",
          "161621.381000",
          "161621.384000",
          "161621.387000",
          "161621.390000",
          "161621.393000",
          "161621.396000",
          "161621.399000",
          "161626.380000",
          "161626.383000",
          "161626.386000",
          "161626.389000",
          "161626.392000",
          "161626.395000",
          "161626.398000",
          "161631.380000",
          "161631.384000",
          "161631.387000",
          "161631.391000",
          "161631.396000",
          "161631.408000",
          "161631.411000",
          "161636.381000",
          "161636.391000",
          "161636.394000",
          "161636.397000",
          "161636.400000",
          "161636.403000",
          "161636.406000",
          "161641.381000",
          "161641.384000",
          "161641.387000",
          "161641.390000",
          "161641.393000",
          "161641.396000",
          "161641.399000",
          "161646.380000",
          "161646.384000",
          "161646.387000",
          "161646.390000",
          "161646.393000",
          "161646.396000",
          "161646.399000",
          "161651.381000",
          "161651.384000",
          "161651.387000",
          "161651.390000",
          "161651.393000",
          "161651.396000",
          "161651.399000",
          "161651.402000",
          "161656.381000",
          "161656.384000",
          "161656.387000",
          "161656.390000",
          "161656.393000",
          "161656.396000",
          "161656.399000",
          "161701.380000",
          "161701.383000",
          "161701.386000",
          "161701.389000",
          "161701.392000",
          "161701.395000",
          "161701.398000",
          "161706.380000",
          "161706.383000",
          "161706.386000",
          "161706.389000",
          "161706.392000",
          "161706.395000",
          "161706.398000",
          "161711.381000",
          "161711.384000",
          "161711.387000",
          "161711.390000",
          "161711.393000",
          "161711.396000",
          "161711.399000",
          "161716.381000",
          "161716.384000",
          "161716.387000",
          "161716.390000",
          "161716.393000",
          "161716.396000",
          "161719.718000",
          "161719.722000",
          "161719.725000",
          "161719.728000"
        ],
        "InstanceCreationTime": [
          "161506.410000",
          "161506.414000",
          "161506.417000",
          "161506.420000",
          "161506.423000",
          "161506.426000",
          "161511.381000",
          "161511.384000",
          "161511.393000",
          "161511.396000",
          "161511.400000",
          "161511.403000",
          "161511.406000",
          "161516.380000",
          "161516.384000",
          "161516.387000",
          "161516.390000",
          "161516.399000",
          "161516.402000",
          "161516.405000",
          "161521.380000",
          "161521.383000",
          "161521.386000",
          "161521.389000",
          "161521.392000",
          "161521.395000",
          "161521.398000",
          "161526.381000",
          "161526.384000",
          "161526.387000",
          "161526.390000",
          "161526.393000",
          "161526.396000",
          "161526.399000",
          "161531.381000",
          "161531.384000",
          "161531.388000",
          "161531.391000",
          "161531.394000",
          "161531.397000",
          "161531.400000",
          "161536.380000",
          "161536.383000",
          "161536.386000",
          "161536.389000",
          "161536.392000",
          "161536.395000",
          "161536.398000",
          "161541.381000",
          "161541.384000",
          "161541.387000",
          "161541.390000",
          "161541.393000",
          "161541.396000",
          "161541.399000",
          "161546.381000",
          "161546.384000",
          "161546.387000",
          "161546.391000",
          "161546.394000",
          "161546.397000",
          "161546.400000",
          "161551.380000",
          "161551.383000",
          "161551.386000",
          "161551.389000",
          "161551.392000",
          "161551.395000",
          "161551.406000",
          "161556.380000",
          "161556.383000",
          "161556.386000",
          "161556.389000",
          "161556.392000",
          "161556.395000",
          "161556.398000",
          "161601.381000",
          "161601.384000",
          "161601.387000",
          "161601.390000",
          "161601.394000",
          "161601.397000",
          "161601.400000",
          "161606.381000",
          "161606.384000",
          "161606.387000",
          "161606.390000",
          "161606.393000",
          "161606.396000",
          "161606.399000",
          "161611.380000",
          "161611.383000",
          "161611.386000",
          "161611.389000",
          "161611.392000",
          "161611.395000",
          "161611.398000",
          "161616.381000",
          "161616.384000",
          "161616.387000",
          "161616.390000",
          "161616.393000",
          "161616.397000",
          "161616.400000",
          "161621.381000",
          "161621.384000",
          "161621.387000",
          "161621.390000",
          "161621.393000",
          "161621.396000",
          "161621.399000",
          "161626.380000",
          "161626.383000",
          "161626.386000",
          "161626.389000",
          "161626.392000",
          "161626.395000",
          "161626.398000",
          "161631.380000",
          "161631.384000",
          "161631.387000",
          "161631.391000",
          "161631.396000",
          "161631.408000",
          "161631.411000",
          "161636.381000",
          "161636.391000",
          "161636.394000",
          "161636.397000",
          "161636.400000",
          "161636.403000",
          "161636.406000",
          "161641.381000",
          "161641.384000",
          "161641.387000",
          "161641.390000",
          "161641.393000",
          "161641.396000",
          "161641.399000",
          "161646.380000",
          "161646.384000",
          "161646.387000",
          "161646.390000",
          "161646.393000",
          "161646.396000",
          "161646.399000",
          "161651.381000",
          "161651.384000",
          "161651.387000",
          "161651.390000",
          "161651.393000",
          "161651.396000",
          "161651.399000",
          "161651.402000",
          "161656.381000",
          "161656.384000",
          "161656.387000",
          "161656.390000",
          "161656.393000",
          "161656.396000",
          "161656.399000",
          "161701.380000",
          "161701.383000",
          "161701.386000",
          "161701.389000",
          "161701.392000",
          "161701.395000",
          "161701.398000",
          "161706.380000",
          "161706.383000",
          "161706.386000",
          "161706.389000",
          "161706.392000",
          "161706.395000",
          "161706.398000",
          "161711.381000",
          "161711.384000",
          "161711.387000",
          "161711.390000",
          "161711.393000",
          "161711.396000",
          "161711.399000",
          "161716.381000",
          "161716.384000",
          "161716.387000",
          "161716.390000",
          "161716.393000",
          "161716.396000",
          "161719.718000",
          "161719.722000",
          "161719.725000",
          "161719.728000"
        ],
        "InstanceNumber": [
          1,
          2,
          3,
          4,
          5,
          6,
          7,
          8,
          9,
          10,
          11,
          12,
          13,
          14,
          15,
          16,
          17,
          18,
          19,
          20,
          21,
          22,
          23,
          24,
          25,
          26,
          27,
          28,
          29,
          30,
          31,
          32,
          33,
          34,
          35,
          36,
          37,
          38,
          39,
          40,
          41,
          42,
          43,
          44,
          45,
          46,
          47,
          48,
          49,
          50,
          51,
          52,
          53,
          54,
          55,
          56,
          57,
          58,
          59,
          60,
          61,
          62,
          63,
          64,
          65,
          66,
          67,
          68,
          69,
          70,
          71,
          72,
          73,
          74,
          75,
          76,
          77,
          78,
          79,
          80,
          81,
          82,
          83,
          84,
          85,
          86,
          87,
          88,
          89,
          90,
          91,
          92,
          93,
          94,
          95,
          96,
          97,
          98,
          99,
          100,
          101,
          102,
          103,
          104,
          105,
          106,
          107,
          108,
          109,
          110,
          111,
          112,
          113,
          114,
          115,
          116,
          117,
          118,
          119,
          120,
          121,
          122,
          123,
          124,
          125,
          126,
          127,
          128,
          129,
          130,
          131,
          132,
          133,
          134,
          135,
          136,
          137,
          138,
          139,
          140,
          141,
          142,
          143,
          144,
          145,
          146,
          147,
          148,
          149,
          150,
          151,
          152,
          153,
          154,
          155,
          156,
          157,
          158,
          159,
          160,
          161,
          162,
          163,
          164,
          165,
          166,
          167,
          168,
          169,
          170,
          171,
          172,
          173,
          174,
          175,
          176,
          177,
          178,
          179,
          180,
          181,
          182,
          183,
          184,
          185,
          186,
          187,
          188,
          189,
          190,
          191,
          192
        ],
        "LargestImagePixelValue": [
          38123,
          36631,
          36772,
          36770,
          35516,
          35768,
          35703,
          35887,
          35601,
          35278,
          35641,
          35447,
          35460,
          35507,
          35417,
          35159,
          35395,
          35420,
          34920,
          36072,
          35465,
          34955,
          35599,
          35605,
          35335,
          35375,
          35111,
          34961,
          35621,
          35520,
          35965,
          35238,
          34907,
          35012,
          34731,
          34036,
          34495,
          34875,
          34352,
          35540,
          35251,
          34758,
          34709,
          35440,
          35016,
          34522,
          35647,
          36506,
          35100,
          36137,
          35585,
          34846,
          35012,
          35308,
          34933,
          35164,
          35991,
          36144,
          34584,
          35861,
          35558,
          34822,
          35912,
          36742,
          36140,
          35305,
          35092,
          35717,
          34984,
          33880,
          34646,
          36018,
          34169,
          34712,
          35007,
          34591,
          33907,
          35478,
          35147,
          34683,
          35067,
          35520,
          35865,
          36608,
          36193,
          35278,
          34802,
