{
  "AcquisitionMatrixPE": 104,
  "AcquisitionNumber": 1,
  "AcquisitionTime": "13:17:53.477500",
  "BandwidthPerPixelPhaseEncode": 16.578,
  "BaseResolution": 104,
  "BodyPartExamined": "BRAIN",
  "ConsistencyInfo": "N4_VE11C_LATEST_20160120",
  "ConversionSoftware": "dcm2niix",
  "ConversionSoftwareVersion": "v1.0.20190902",
  "DerivedVendorReportedEchoSpacing": 0.000580009,
  "DeviceSerialNumber": "166018",
  "DwellTime": 2.1e-06,
  "EchoTime": 0.037,
  "EchoTrainLength": 104,
  "EffectiveEchoSpacing": 0.000580009,
  "FlipAngle": 68,
  "ImageComments": "Unaliased_MB6_PE3_LB",
  "ImageOrientationPatientDICOM": [0.998567, 0.0308373, 0.0437352, -0.0280669, 0.997644, -0.062602],
  "ImageType": [
    "ORIGINAL",
    "PRIMARY",
    "M",
    "MB",
    "ND",
    "MOSAIC"
],
  "ImagingFrequency": 123.191,
  "InPlanePhaseEncodingDirectionDICOM": "COL",
  "InstitutionAddress": "Washington_Place_6_NYC_NYC_US_10003",
  "InstitutionName": "NYU_-_CBI",
  "InstitutionalDepartmentName": "Department",
  "MRAcquisitionType": "2D",
  "MagneticFieldStrength": 3,
  "Manufacturer": "Siemens",
  "ManufacturersModelName": "Prisma",
  "Modality": "MR",
  "MultibandAccelerationFactor": 6,
  "PartialFourier": 1,
  "PatientPosition": "HFS",
  "PercentPhaseFOV": 100,
  "PhaseEncodingDirection": "j",
  "PhaseEncodingSteps": 104,
  "PhaseResolution": 1,
  "PixelBandwidth": 2290,
  "ProcedureStepDescription": "Investigators_Winawer",
  "ProtocolName": "cmrr_mbepi_s6_2mm_66sl_PA_task-prf",
  "PulseSequenceDetails": "%CustomerSeq%_cmrr_mbep2d_bold",
  "ReceiveCoilActiveElements": "HC1-7",
  "ReceiveCoilName": "HeadNeck_64",
  "ReconMatrixPE": 104,
  "RepetitionTime": 1,
  "SAR": 0.0690553,
  "ScanOptions": "FS",
  "ScanningSequence": "EP",
  "SequenceName": "epfid2d1_104",
  "SequenceVariant": "SK_SS",
  "SeriesDescription": "cmrr_mbepi_s6_2mm_66sl_PA_task-prf",
  "SeriesNumber": 16,
  "ShimSetting": [276, -12659, -8446, 255, -13, -36, -149, 11],
  "SliceThickness": 2,
  "SliceTiming": [0, 0.535, 0.0875, 0.6225, 0.1775, 0.7125, 0.2675, 0.8, 0.355, 0.89, 0.445, 0, 0.535, 0.0875, 0.6225, 0.1775, 0.7125, 0.2675, 0.8, 0.355, 0.89, 0.445, 0, 0.535, 0.0875, 0.6225, 0.1775, 0.7125, 0.2675, 0.8, 0.355, 0.89, 0.445, 0, 0.535, 0.0875, 0.6225, 0.1775, 0.7125, 0.2675, 0.8, 0.355, 0.89, 0.445, 0, 0.535, 0.0875, 0.6225, 0.1775, 0.7125, 0.2675, 0.8, 0.355, 0.89, 0.445, 0, 0.535, 0.0875, 0.6225, 0.1775, 0.7125, 0.2675, 0.8, 0.355, 0.89, 0.445],
  "SoftwareVersions": "syngo_MR_E11",
  "SpacingBetweenSlices": 2,
  "StationName": "AWP166018",
  "TaskName": "prf",
  "TotalReadoutTime": 0.0597409,
  "TxRefAmp": 214.126,
  "WipMemBlock": "8afc09ff-1993-4210-a988-25e560d73831||Sequence: R016 ve11c/master r/8780670; Nov 27 2017 15:05:12 by eja",
  "dcmmeta_affine": [
    [-1.9971342086791992, -0.05613384768366814, 0.0911252498626709, 109.48966979980469],
    [-0.06167455017566681, 1.9952876567840576, -0.12256956845521927, -78.9878921508789],
    [0.0874703899025917, 0.12520399689674377, 1.9941596984863281, -46.27001953125],
    [0.0, 0.0, 0.0, 1.0]
],
  "dcmmeta_reorient_transform": [
    [0.0, -1.0, 0.0, 103.0],
    [1.0, 0.0, 0.0, 0.0],
    [0.0, 0.0, 1.0, 0.0],
    [0.0, 0.0, 0.0, 1.0]
],
  "dcmmeta_shape": [104, 104, 66, 192],
  "dcmmeta_slice_dim": 2,
  "dcmmeta_version": 0.6,
  "global": {
    "const": {
      "AccessionNumber": "k42w5s4h",
      "AcquisitionMatrix": [104, 0, 0, 104],
      "AngioFlag": "N",
      "BitsAllocated": 16,
      "BitsStored": 16,
      "BodyPartExamined": "BRAIN",
      "Columns": 936,
      "EchoNumbers": 1,
      "EchoTime": 37.0,
      "EchoTrainLength": 104,
      "FlipAngle": 68.0,
      "HighBit": 15,
      "ImageOrientationPatient": [0.99856712098203, 0.03083727596915, 0.04373519526036, -0.0280669243905, 0.9976438430386, -0.0626019983901],
      "ImagePositionPatient": [-911.16404598822, -982.22303037893, -17.676827208324],
      "ImageType": [
        "ORIGINAL",
        "PRIMARY",
        "M",
        "MB",
        "ND",
        "MOSAIC"
],
      "ImagedNucleus": "1H",
      "ImagingFrequency": 123.190719,
      "InPlanePhaseEncodingDirection": "COL",
      "MRAcquisitionType": "2D",
      "MagneticFieldStrength": 3.0,
      "Manufacturer": "SIEMENS",
      "ManufacturerModelName": "Prisma",
      "Modality": "MR",
      "NumberOfAverages": 1.0,
      "NumberOfPhaseEncodingSteps": 104,
      "PercentPhaseFieldOfView": 100.0,
      "PercentSampling": 100.0,
      "PerformedProcedureStepStartTime": "124544.430000",
      "PhotometricInterpretation": "MONOCHROME2",
      "PixelBandwidth": 2290.0,
      "PixelRepresentation": 0,
      "PixelSpacing": [2.0, 2.0],
      "ProtocolName": "cmrr_mbepi_s6_2mm_66sl_PA_task-prf",
      "RepetitionTime": 1000.0,
      "Rows": 936,
      "SAR": 0.06905534704451,
      "SamplesPerPixel": 1,
      "ScanOptions": "FS",
      "ScanningSequence": "EP",
      "SequenceName": "epfid2d1_104",
      "SequenceVariant": [
        "SK",
        "SS"
],
      "SeriesDescription": "cmrr_mbepi_s6_2mm_66sl_PA_task-prf",
      "SeriesNumber": 16,
      "SeriesTime": "131905.720000",
      "SliceLocation": -36.305511040149,
      "SliceThickness": 2.0,
      "SmallestImagePixelValue": 0,
      "SoftwareVersions": "syngo MR E11",
      "SpacingBetweenSlices": 2.0000000042274,
      "SpecificCharacterSet": "ISO_IR 100",
      "StudyID": "1",
      "StudyTime": "124544.358000",
      "TransmitCoilName": "Body",
      "VariableFlipAngleFlag": "N",
      "WindowCenterWidthExplanation": "Algo1",
      "dBdt": 0.0},
    "slices": {}
  },
  "time": {
    "samples": {
      "AcquisitionNumber": [1, 2, 3, 4, 5, 6, 7, 8, 9, 10, 11, 12, 13, 14, 15, 16, 17, 18, 19, 20, 21, 22, 23, 24, 25, 26, 27, 28, 29, 30, 31, 32, 33, 34, 35, 36, 37, 38, 39, 40, 41, 42, 43, 44, 45, 46, 47, 48, 49, 50, 51, 52, 53, 54, 55, 56, 57, 58, 59, 60, 61, 62, 63, 64, 65, 66, 67, 68, 69, 70, 71, 72, 73, 74, 75, 76, 77, 78, 79, 80, 81, 82, 83, 84, 85, 86, 87, 88, 89, 90, 91, 92, 93, 94, 95, 96, 97, 98, 99, 100, 101, 102, 103, 104, 105, 106, 107, 108, 109, 110, 111, 112, 113, 114, 115, 116, 117, 118, 119, 120, 121, 122, 123, 124, 125, 126, 127, 128, 129, 130, 131, 132, 133, 134, 135, 136, 137, 138, 139, 140, 141, 142, 143, 144, 145, 146, 147, 148, 149, 150, 151, 152, 153, 154, 155, 156, 157, 158, 159, 160, 161, 162, 163, 164, 165, 166, 167, 168, 169, 170, 171, 172, 173, 174, 175, 176, 177, 178, 179, 180, 181, 182, 183, 184, 185, 186, 187, 188, 189, 190, 191, 192],
      "AcquisitionTime": ["131753.477500", "131754.477500", "131755.477500", "131756.477500", "131757.477500", "131758.477500", "131759.477500", "131800.477500", "131801.477500", "131802.477500", "131803.477500", "131804.477500", "131805.477500", "131806.477500", "131807.477500", "131808.477500", "131809.477500", "131810.477500", "131811.477500", "131812.477500", "131813.477500", "131814.477500", "131815.477500", "131816.477500", "131817.477500", "131818.477500", "131819.477500", "131820.477500", "131821.477500", "131822.477500", "131823.477500", "131824.477500", "131825.477500", "131826.477500", "131827.477500", "131828.477500", "131829.477500", "131830.477500", "131831.477500", "131832.477500", "131833.477500", "131834.477500", "131835.477500", "131836.477500", "131837.477500", "131838.477500", "131839.477500", "131840.477500", "131841.477500", "131842.477500", "131843.477500", "131844.477500", "131845.477500", "131846.477500", "131847.477500", "131848.477500", "131849.477500", "131850.477500", "131851.477500", "131852.477500", "131853.477500", "131854.477500", "131855.477500", "131856.477500", "131857.477500", "131858.477500", "131859.477500", "131900.477500", "131901.477500", "131902.477500", "131903.477500", "131904.477500", "131905.477500", "131906.477500", "131907.477500", "131908.477500", "131909.477500", "131910.477500", "131911.477500", "131912.477500", "131913.477500", "131914.477500", "131915.477500", "131916.477500", "131917.477500", "131918.477500", "131919.477500", "131920.477500", "131921.477500", "131922.477500", "131923.477500", "131924.477500", "131925.477500", "131926.477500", "131927.477500", "131928.477500", "131929.477500", "131930.477500", "131931.477500", "131932.477500", "131933.477500", "131934.477500", "131935.477500", "131936.477500", "131937.477500", "131938.477500", "131939.477500", "131940.477500", "131941.477500", "131942.477500", "131943.477500", "131944.477500", "131945.477500", "131946.477500", "131947.477500", "131948.477500", "131949.477500", "131950.477500", "131951.477500", "131952.477500", "131953.477500", "131954.477500", "131955.477500", "131956.477500", "131957.477500", "131958.477500", "131959.477500", "132000.477500", "132001.477500", "132002.477500", "132003.477500", "132004.477500", "132005.477500", "132006.477500", "132007.477500", "132008.477500", "132009.477500", "132010.477500", "132011.477500", "132012.477500", "132013.477500", "132014.477500", "132015.477500", "132016.477500", "132017.477500", "132018.477500", "132019.477500", "132020.477500", "132021.477500", "132022.477500", "132023.477500", "132024.477500", "132025.477500", "132026.477500", "132027.477500", "132028.477500", "132029.477500", "132030.477500", "132031.477500", "132032.477500", "132033.477500", "132034.477500", "132035.477500", "132036.477500", "132037.477500", "132038.477500", "132039.477500", "132040.477500", "132041.477500", "132042.477500", "132043.477500", "132044.477500", "132045.477500", "132046.477500", "132047.477500", "132048.477500", "132049.477500", "132050.477500", "132051.477500", "132052.477500", "132053.477500", "132054.477500", "132055.477500", "132056.477500", "132057.477500", "132058.477500", "132059.477500", "132100.477500", "132101.477500", "132102.477500", "132103.477500", "132104.477500"],
      "ContentTime": ["131905.723000", "131905.726000", "131905.729000", "131905.732000", "131905.735000", "131905.738000", "131905.741000", "131905.744000", "131905.747000", "131905.750000", "131905.753000", "131905.756000", "131905.762000", "131905.765000", "131905.768000", "131905.771000", "131905.774000", "131905.777000", "131905.780000", "131905.783000", "131905.786000", "131905.789000", "131905.792000", "131905.803000", "131925.691000", "131925.694000", "131925.697000", "131925.700000", "131925.703000", "131925.710000", "131925.713000", "131925.716000", "131925.719000", "131925.722000", "131925.725000", "131925.728000", "131925.731000", "131925.734000", "131925.737000", "131925.740000", "131925.743000", "131925.746000", "131925.749000", "131925.752000", "131925.755000", "131925.758000", "131925.760000", "131925.764000", "131925.767000", "131925.770000", "131925.773000", "131925.776000", "131945.691000", "131945.694000", "131945.697000", "131945.700000", "131945.703000", "131945.706000", "131945.709000", "131945.712000", "131945.715000", "131945.718000", "131945.721000", "131945.724000", "131945.727000", "131945.730000", "131945.733000", "131945.736000", "131945.739000", "131945.742000", "131945.745000", "131945.748000", "131945.751000", "131945.754000", "131945.757000", "131945.760000", "131945.763000", "131945.766000", "131945.769000", "131945.772000", "132005.690000", "132005.693000", "132005.696000", "132005.699000", "132005.702000", "132005.705000", "132005.708000", "132005.711000", "132005.714000", "132005.717000", "132005.720000", "132005.723000", "132005.726000", "132005.729000", "132005.732000", "132005.742000", "132005.745000", "132005.748000", "132005.751000", "132005.754000", "132005.757000", "132005.760000", "132005.763000", "132005.766000", "132005.769000", "132005.772000", "132005.775000", "132005.778000", "132025.691000", "132025.694000", "132025.697000", "132025.700000", "132025.703000", "132025.706000", "132025.709000", "132025.712000", "132025.715000", "132025.718000", "132025.721000", "132025.724000", "132025.727000", "132025.730000", "132025.733000", "132025.736000", "132025.739000", "132025.742000", "132025.745000", "132025.748000", "132025.751000", "132025.754000", "132025.757000", "132025.768000", "132025.771000", "132025.774000", "132025.777000", "132025.780000", "132025.783000", "132045.691000", "132045.694000", "132045.697000", "132045.700000", "132045.703000", "132045.706000", "132045.709000", "132045.712000", "132045.715000", "132045.718000", "132045.721000", "132045.724000", "132045.727000", "132045.730000", "132045.733000", "132045.736000", "132045.739000", "132045.742000", "132045.746000", "132045.749000", "132045.763000", "132045.766000", "132045.769000", "132045.772000", "132045.775000", "132045.778000", "132045.781000", "132045.784000", "132105.720000", "132105.724000", "132105.727000", "132105.730000", "132105.735000", "132105.738000", "132105.742000", "132105.745000", "132105.748000", "132105.752000", "132105.756000", "132105.760000", "132105.763000", "132105.768000", "132105.772000", "132105.775000", "132105.778000", "132105.782000", "132105.786000", "132105.789000", "132105.792000", "132105.795000", "132105.798000", "132105.801000", "132105.804000", "132105.807000", "132105.810000"],
      "InstanceCreationTime": ["131905.723000", "131905.726000", "131905.729000", "131905.732000", "131905.735000", "131905.738000", "131905.741000", "131905.744000", "131905.747000", "131905.750000", "131905.753000", "131905.756000", "131905.762000", "131905.765000", "131905.768000", "131905.771000", "131905.774000", "131905.777000", "131905.780000", "131905.783000", "131905.786000", "131905.789000", "131905.792000", "131905.803000", "131925.691000", "131925.694000", "131925.697000", "131925.700000", "131925.703000", "131925.710000", "131925.713000", "131925.716000", "131925.719000", "131925.722000", "131925.725000", "131925.728000", "131925.731000", "131925.734000", "131925.737000", "131925.740000", "131925.743000", "131925.746000", "131925.749000", "131925.752000", "131925.755000", "131925.758000", "131925.760000", "131925.764000", "131925.767000", "131925.770000", "131925.773000", "131925.776000", "131945.691000", "131945.694000", "131945.697000", "131945.700000", "131945.703000", "131945.706000", "131945.709000", "131945.712000", "131945.715000", "131945.718000", "131945.721000", "131945.724000", "131945.727000", "131945.730000", "131945.733000", "131945.736000", "131945.739000", "131945.742000", "131945.745000", "131945.748000", "131945.751000", "131945.754000", "131945.757000", "131945.760000", "131945.763000", "131945.766000", "131945.769000", "131945.772000", "132005.690000", "132005.693000", "132005.696000", "132005.699000", "132005.702000", "132005.705000", "132005.708000", "132005.711000", "132005.714000", "132005.717000", "132005.720000", "132005.723000", "132005.726000", "132005.729000", "132005.732000", "132005.742000", "132005.745000", "132005.748000", "132005.751000", "132005.754000", "132005.757000", "132005.760000", "132005.763000", "132005.766000", "132005.769000", "132005.772000", "132005.775000", "132005.778000", "132025.691000", "132025.694000", "132025.697000", "132025.700000", "132025.703000", "132025.706000", "132025.709000", "132025.712000", "132025.715000", "132025.718000", "132025.721000", "132025.724000", "132025.727000", "132025.730000", "132025.733000", "132025.736000", "132025.739000", "132025.742000", "132025.745000", "132025.748000", "132025.751000", "132025.754000", "132025.757000", "132025.768000", "132025.771000", "132025.774000", "132025.777000", "132025.780000", "132025.783000", "132045.691000", "132045.694000", "132045.697000", "132045.700000", "132045.703000", "132045.706000", "132045.709000", "132045.712000", "132045.715000", "132045.718000", "132045.721000", "132045.724000", "132045.727000", "132045.730000", "132045.733000", "132045.736000", "132045.739000", "132045.742000", "132045.746000", "132045.749000", "132045.763000", "132045.766000", "132045.769000", "132045.772000", "132045.775000", "132045.778000", "132045.781000", "132045.784000", "132105.720000", "132105.724000", "132105.727000", "132105.730000", "132105.735000", "132105.738000", "132105.742000", "132105.745000", "132105.748000", "132105.752000", "132105.756000", "132105.760000", "132105.763000", "132105.768000", "132105.772000", "132105.775000", "132105.778000", "132105.782000", "132105.786000", "132105.789000", "132105.792000", "132105.795000", "132105.798000", "132105.801000", "132105.804000", "132105.807000", "132105.810000"],
      "InstanceNumber": [1, 2, 3, 4, 5, 6, 7, 8, 9, 10, 11, 12, 13, 14, 15, 16, 17, 18, 19, 20, 21, 22, 23, 24, 25, 26, 27, 28, 29, 30, 31, 32, 33, 34, 35, 36, 37, 38, 39, 40, 41, 42, 43, 44, 45, 46, 47, 48, 49, 50, 51, 52, 53, 54, 55, 56, 57, 58, 59, 60, 61, 62, 63, 64, 65, 66, 67, 68, 69, 70, 71, 72, 73, 74, 75, 76, 77, 78, 79, 80, 81, 82, 83, 84, 85, 86, 87, 88, 89, 90, 91, 92, 93, 94, 95, 96, 97, 98, 99, 100, 101, 102, 103, 104, 105, 106, 107, 108, 109, 110, 111, 112, 113, 114, 115, 116, 117, 118, 119, 120, 121, 122, 123, 124, 125, 126, 127, 128, 129, 130, 131, 132, 133, 134, 135, 136, 137, 138, 139, 140, 141, 142, 143, 144, 145, 146, 147, 148, 149, 150, 151, 152, 153, 154, 155, 156, 157, 158, 159, 160, 161, 162, 163, 164, 165, 166, 167, 168, 169, 170, 171, 172, 173, 174, 175, 176, 177, 178, 179, 180, 181, 182, 183, 184, 185, 186, 187, 188, 189, 190, 191, 192],
      "LargestImagePixelValue": [41293, 40441, 39848, 39028, 39005, 38999, 38145, 38854, 38349, 38557, 38841, 38246, 38873, 38238, 38353, 38172, 38394, 38920, 38426, 38336, 38566, 38001, 38372, 38820, 38867, 38162, 38758, 38972, 38408, 38592, 38762, 38110, 38785, 38522, 38390, 38807, 38516, 38598, 38743, 38694, 39214, 39079, 38508, 38795, 39215, 38478, 39104, 38829, 38919, 39498, 38921, 38975, 39073, 38761, 38924, 39281, 38658, 39201, 38820, 38818, 39017, 38572, 38827, 39271, 38701, 39004, 38835, 38786, 38762, 38071, 39012, 38669, 38363, 38784, 38910, 38616, 38924, 38729, 38827, 38921, 38870, 38970, 38554, 38455, 38746, 38682, 38684, 38524, 38542, 38601, 38731, 38959, 38842, 38812, 39373, 38785, 38527, 38828, 38760, 39075, 38833, 38413, 39390, 38804, 38841, 39227, 38981, 39448, 39496, 39248, 39148, 38945, 39322, 39152, 39294, 39002, 38443, 39385, 39025, 38503, 39269, 38533, 38891, 39106, 39165, 39468, 38655, 38897, 39086, 39201, 39335, 38903, 39032, 38857, 38907, 39618, 39394, 39090, 39390, 39150, 39175, 39073, 38957, 39369, 39562, 39014, 39641, 38904, 39361, 38913, 38812, 39471, 39676, 38947, 39203, 38940, 39793, 39670, 39304, 39796, 39345, 39060, 39363, 39087, 39064, 39690, 38994, 39560, 39670, 39379, 39804, 39296, 39989, 39812, 39040, 39596, 39171, 39661, 39448, 39127, 39395, 39269, 38920, 39008, 39360, 39520, 39232, 38956, 39222, 39526, 39102, 39433],
      "WindowCenter": [10286.0, 10246.0, 10227.0, 10211.0, 10214.0, 10201.0, 10182.0, 10187.0, 10187.0, 10194.0, 10203.0, 10205.0, 10204.0, 10198.0, 10202.0, 10206.0, 10211.0, 10224.0, 10216.0, 10199.0, 10195.0, 10184.0, 10180.0, 10193.0, 10199.0, 10200.0, 10211.0, 10217.0, 10206.0, 10198.0, 10196.0, 10192.0, 10194.0, 10197.0, 10205.0, 10202.0, 10204.0, 10212.0, 10210.0, 10217.0, 10229.0, 10223.0, 10214.0, 10218.0, 10221.0, 10204.0, 10201.0, 10201.0, 10200.0, 10204.0, 10207.0, 10206.0, 10207.0, 10208.0, 10199.0, 10196.0, 10186.0, 10187.0, 10196.0, 10205.0, 10205.0, 10215.0, 10210.0, 10217.0, 10209.0, 10213.0, 10209.0, 10211.0, 10210.0, 10202.0, 10213.0, 10204.0, 10190.0, 10180.0, 10181.0, 10182.0, 10190.0, 10188.0, 10187.0, 10191.0, 10184.0, 10184.0, 10181.0, 10187.0, 10202.0, 10202.0, 10209.0, 10211.0, 10205.0, 10217.0, 10217.0, 10215.0, 10210.0, 10211.0, 10221.0, 10211.0, 10205.0, 10204.0, 10208.0, 10208.0, 10207.0, 10201.0, 10202.0, 10186.0, 10180.0, 10182.0, 10191.0, 10194.0, 10197.0, 10197.0, 10192.0, 10198.0, 10195.0, 10192.0, 10201.0, 10197.0, 10196.0, 10210.0, 10219.0, 10209.0, 10226.0, 10207.0, 10215.0, 10215.0, 10208.0, 10207.0, 10203.0, 10209.0, 10209.0, 10216.0, 10213.0, 10214.0, 10206.0, 10193.0, 10199.0, 10202.0, 10203.0, 10206.0, 10203.0, 10207.0, 10215.0, 10222.0, 10227.0, 10222.0, 10221.0, 10209.0, 10205.0, 10201.0, 10214.0, 10217.0, 10221.0, 10223.0, 10214.0, 10202.0, 10198.0, 10186.0, 10196.0, 10189.0, 10197.0, 10196.0, 10197.0, 10199.0, 10191.0, 10185.0, 10184.0, 10185.0, 10178.0, 10187.0, 10188.0, 10190.0, 10187.0, 10184.0, 10194.0, 10193.0, 10192.0, 10197.0, 10199.0, 10212.0, 10212.0, 10216.0, 10215.0, 10207.0, 10202.0, 10196.0, 10195.0, 10200.0, 10195.0, 10198.0, 10210.0, 10221.0, 10212.0, 10218.0],
      "WindowWidth": [22132.0, 22020.0, 21968.0, 21929.0, 21933.0, 21904.0, 21861.0, 21868.0, 21868.0, 21884.0, 21907.0, 21910.0, 21909.0, 21895.0, 21900.0, 21913.0, 21925.0, 21952.0, 21935.0, 21895.0, 21883.0, 21860.0, 21847.0, 21876.0, 21892.0, 21897.0, 21922.0, 21935.0, 21911.0, 21891.0, 21888.0, 21881.0, 21883.0, 21891.0, 21908.0, 21902.0, 21910.0, 21926.0, 21922.0, 21939.0, 21962.0, 21952.0, 21934.0, 21939.0, 21941.0, 21906.0, 21897.0, 21896.0, 21894.0, 21903.0, 21909.0, 21908.0, 21911.0, 21911.0, 21890.0, 21882.0, 21858.0, 21860.0, 21880.0, 21901.0, 21904.0, 21927.0, 21919.0, 21931.0, 21918.0, 21927.0, 21920.0, 21926.0, 21923.0, 21909.0, 21928.0, 21905.0, 21872.0, 21848.0, 21846.0, 21850.0, 21869.0, 21867.0, 21868.0, 21874.0, 21858.0, 21858.0, 21854.0, 21870.0, 21902.0, 21904.0, 21920.0, 21927.0, 21915.0, 21939.0, 21940.0, 21934.0, 21922.0, 21925.0, 21945.0, 21925.0, 21912.0, 21905.0, 21912.0, 21912.0, 21910.0, 21896.0, 21895.0, 21860.0, 21848.0, 21849.0, 21870.0, 21874.0, 21884.0, 21883.0, 21874.0, 21883.0, 21876.0, 21872.0, 21888.0, 21882.0, 21881.0, 21908.0, 21930.0, 21914.0, 21949.0, 21913.0, 21930.0, 21930.0, 21916.0, 21913.0, 21908.0, 21919.0, 21919.0, 21933.0, 21924.0, 21924.0, 21906.0, 21876.0, 21890.0, 21894.0, 21899.0, 21906.0, 21900.0, 21912.0, 21931.0, 21947.0, 21961.0, 21947.0, 21943.0, 21916.0, 21901.0, 21894.0, 21923.0, 21933.0, 21944.0, 21946.0, 21925.0, 21899.0, 21885.0, 21860.0, 21876.0, 21863.0, 21881.0, 21880.0, 21883.0, 21889.0, 21868.0, 21857.0, 21850.0, 21851.0, 21839.0, 21856.0, 21859.0, 21863.0, 21855.0, 21849.0, 21870.0, 21868.0, 21870.0, 21880.0, 21885.0, 21913.0, 21915.0, 21925.0, 21922.0, 21904.0, 21894.0, 21883.0, 21880.0, 21889.0, 21882.0, 21889.0, 21915.0, 21941.0, 21924.0, 21935.0]
    },
    "slices": {}
  },
  "NumberOfVolumes": 192
}