{
  "AcquisitionMatrixPE": 104,
  "AcquisitionNumber": 1,
  "AcquisitionTime": "14:40:44.457500",
  "BandwidthPerPixelPhaseEncode": 16.578,
  "BaseResolution": 104,
  "BodyPartExamined": "BRAIN",
  "ConsistencyInfo": "N4_VE11C_LATEST_20160120",
  "ConversionSoftware": "dcm2niix",
  "ConversionSoftwareVersion": "v1.0.20190902",
  "DerivedVendorReportedEchoSpacing": 0.000580009,
  "DeviceSerialNumber": "166018",
  "DwellTime": 2.1e-06,
  "EchoTime": 0.037,
  "EchoTrainLength": 104,
  "EffectiveEchoSpacing": 0.000580009,
  "FlipAngle": 68,
  "ImageComments": "Unaliased_MB6_PE3_LB",
  "ImageOrientationPatientDICOM": [0.995229, 0.0971268, 0.00926141, -0.0882967, 0.936982, -0.338036],
  "ImageType": [
    "ORIGINAL",
    "PRIMARY",
    "M",
    "MB",
    "ND",
    "MOSAIC"
],
  "ImagingFrequency": 123.191,
  "InPlanePhaseEncodingDirectionDICOM": "COL",
  "InstitutionAddress": "Washington_Place_6_NYC_NYC_US_10003",
  "InstitutionName": "NYU_-_CBI",
  "InstitutionalDepartmentName": "Department",
  "MRAcquisitionType": "2D",
  "MagneticFieldStrength": 3,
  "Manufacturer": "Siemens",
  "ManufacturersModelName": "Prisma",
  "Modality": "MR",
  "MultibandAccelerationFactor": 6,
  "PartialFourier": 1,
  "PatientPosition": "HFS",
  "PercentPhaseFOV": 100,
  "PhaseEncodingDirection": "j",
  "PhaseEncodingSteps": 104,
  "PhaseResolution": 1,
  "PixelBandwidth": 2290,
  "ProcedureStepDescription": "Investigators_Winawer",
  "ProtocolName": "cmrr_mbepi_s6_2mm_66sl_PA_task-prf",
  "PulseSequenceDetails": "%CustomerSeq%_cmrr_mbep2d_bold",
  "ReceiveCoilActiveElements": "HC1-7",
  "ReceiveCoilName": "HeadNeck_64",
  "ReconMatrixPE": 104,
  "RepetitionTime": 1,
  "SAR": 0.0613603,
  "ScanOptions": "FS",
  "ScanningSequence": "EP",
  "SequenceName": "epfid2d1_104",
  "SequenceVariant": "SK_SS",
  "SeriesDescription": "cmrr_mbepi_s6_2mm_66sl_PA_task-prf",
  "SeriesNumber": 14,
  "ShimSetting": [282, -12509, -8541, 233, -34, 145, -218, 24],
  "SliceThickness": 2,
  "SliceTiming": [0, 0.535, 0.0875, 0.6225, 0.1775, 0.7125, 0.2675, 0.8025, 0.355, 0.89, 0.445, 0, 0.535, 0.0875, 0.6225, 0.1775, 0.7125, 0.2675, 0.8025, 0.355, 0.89, 0.445, 0, 0.535, 0.0875, 0.6225, 0.1775, 0.7125, 0.2675, 0.8025, 0.355, 0.89, 0.445, 0, 0.535, 0.0875, 0.6225, 0.1775, 0.7125, 0.2675, 0.8025, 0.355, 0.89, 0.445, 0, 0.535, 0.0875, 0.6225, 0.1775, 0.7125, 0.2675, 0.8025, 0.355, 0.89, 0.445, 0, 0.535, 0.0875, 0.6225, 0.1775, 0.7125, 0.2675, 0.8025, 0.355, 0.89, 0.445],
  "SoftwareVersions": "syngo_MR_E11",
  "SpacingBetweenSlices": 2,
  "StationName": "AWP166018",
  "TaskName": "prf",
  "TotalReadoutTime": 0.0597409,
  "TxRefAmp": 202.47,
  "WipMemBlock": "3763a35e-f073-4bba-9922-188f13fe604f||Sequence: R016 ve11c/master r/8780670; Nov 27 2017 15:05:12 by eja",
  "dcmmeta_affine": [
    [-1.9904578924179077, -0.17659330368041992, 0.08302035182714462, 109.17908477783203],
    [-0.19425363838672638, 1.8739638328552246, -0.6712117791175842, -57.767791748046875],
    [0.01852281205356121, 0.676072895526886, 1.8821748495101929, -72.56938171386719],
    [0.0, 0.0, 0.0, 1.0]
],
  "dcmmeta_reorient_transform": [
    [0.0, -1.0, 0.0, 103.0],
    [1.0, 0.0, 0.0, 0.0],
    [0.0, 0.0, 1.0, 0.0],
    [0.0, 0.0, 0.0, 1.0]
],
  "dcmmeta_shape": [104, 104, 66, 192],
  "dcmmeta_slice_dim": 2,
  "dcmmeta_version": 0.6,
  "global": {
    "const": {
      "AccessionNumber": "k2me5qyk",
      "AcquisitionMatrix": [104, 0, 0, 104],
      "AngioFlag": "N",
      "BitsAllocated": 16,
      "BitsStored": 16,
      "BodyPartExamined": "BRAIN",
      "Columns": 936,
      "EchoNumbers": 1,
      "EchoTime": 37.0,
      "EchoTrainLength": 104,
      "FlipAngle": 68.0,
      "HighBit": 15,
      "ImageOrientationPatient": [0.99522892186994, 0.09712682142501, 0.00926140558799, -0.0882966502962, 0.93698189006321, -0.3380364466149],
      "ImagePositionPatient": [-845.55762851472, -995.62892472934, 270.60696211336],
      "ImageType": [
        "ORIGINAL",
        "PRIMARY",
        "M",
        "MB",
        "ND",
        "MOSAIC"
],
      "ImagedNucleus": "1H",
      "ImagingFrequency": 123.190764,
      "InPlanePhaseEncodingDirection": "COL",
      "MRAcquisitionType": "2D",
      "MagneticFieldStrength": 3.0,
      "Manufacturer": "SIEMENS",
      "ManufacturerModelName": "Prisma",
      "Modality": "MR",
      "NumberOfAverages": 1.0,
      "NumberOfPhaseEncodingSteps": 104,
      "PercentPhaseFieldOfView": 100.0,
      "PercentSampling": 100.0,
      "PerformedProcedureStepStartTime": "142122.244000",
      "PhotometricInterpretation": "MONOCHROME2",
      "PixelBandwidth": 2290.0,
      "PixelRepresentation": 0,
      "PixelSpacing": [2.0, 2.0],
      "ProtocolName": "cmrr_mbepi_s6_2mm_66sl_PA_task-prf",
      "RepetitionTime": 1000.0,
      "Rows": 936,
      "SAR": 0.06136028033921,
      "SamplesPerPixel": 1,
      "ScanOptions": "FS",
      "ScanningSequence": "EP",
      "SequenceName": "epfid2d1_104",
      "SequenceVariant": [
        "SK",
        "SS"
],
      "SeriesDescription": "cmrr_mbepi_s6_2mm_66sl_PA_task-prf",
      "SeriesNumber": 14,
      "SeriesTime": "144152.957000",
      "SliceLocation": -44.37487781962,
      "SliceThickness": 2.0,
      "SmallestImagePixelValue": 0,
      "SoftwareVersions": "syngo MR E11",
      "SpacingBetweenSlices": 1.9999999647652,
      "SpecificCharacterSet": "ISO_IR 100",
      "StudyID": "1",
      "StudyTime": "142122.195000",
      "TransmitCoilName": "Body",
      "VariableFlipAngleFlag": "N",
      "WindowCenterWidthExplanation": "Algo1",
      "dBdt": 0.0},
    "slices": {}
  },
  "time": {
    "samples": {
      "AcquisitionNumber": [1, 2, 3, 4, 5, 6, 7, 8, 9, 10, 11, 12, 13, 14, 15, 16, 17, 18, 19, 20, 21, 22, 23, 24, 25, 26, 27, 28, 29, 30, 31, 32, 33, 34, 35, 36, 37, 38, 39, 40, 41, 42, 43, 44, 45, 46, 47, 48, 49, 50, 51, 52, 53, 54, 55, 56, 57, 58, 59, 60, 61, 62, 63, 64, 65, 66, 67, 68, 69, 70, 71, 72, 73, 74, 75, 76, 77, 78, 79, 80, 81, 82, 83, 84, 85, 86, 87, 88, 89, 90, 91, 92, 93, 94, 95, 96, 97, 98, 99, 100, 101, 102, 103, 104, 105, 106, 107, 108, 109, 110, 111, 112, 113, 114, 115, 116, 117, 118, 119, 120, 121, 122, 123, 124, 125, 126, 127, 128, 129, 130, 131, 132, 133, 134, 135, 136, 137, 138, 139, 140, 141, 142, 143, 144, 145, 146, 147, 148, 149, 150, 151, 152, 153, 154, 155, 156, 157, 158, 159, 160, 161, 162, 163, 164, 165, 166, 167, 168, 169, 170, 171, 172, 173, 174, 175, 176, 177, 178, 179, 180, 181, 182, 183, 184, 185, 186, 187, 188, 189, 190, 191, 192],
      "AcquisitionTime": ["144044.457500", "144045.457500", "144046.457500", "144047.457500", "144048.457500", "144049.457500", "144050.457500", "144051.457500", "144052.457500", "144053.457500", "144054.457500", "144055.457500", "144056.457500", "144057.457500", "144058.457500", "144059.457500", "144100.457500", "144101.457500", "144102.457500", "144103.457500", "144104.457500", "144105.457500", "144106.457500", "144107.457500", "144108.457500", "144109.457500", "144110.457500", "144111.457500", "144112.457500", "144113.457500", "144114.457500", "144115.457500", "144116.457500", "144117.457500", "144118.457500", "144119.457500", "144120.457500", "144121.457500", "144122.457500", "144123.457500", "144124.457500", "144125.457500", "144126.457500", "144127.457500", "144128.457500", "144129.457500", "144130.457500", "144131.457500", "144132.457500", "144133.457500", "144134.457500", "144135.457500", "144136.457500", "144137.457500", "144138.457500", "144139.457500", "144140.457500", "144141.457500", "144142.457500", "144143.457500", "144144.457500", "144145.457500", "144146.457500", "144147.457500", "144148.457500", "144149.457500", "144150.457500", "144151.457500", "144152.457500", "144153.457500", "144154.457500", "144155.457500", "144156.457500", "144157.457500", "144158.457500", "144159.457500", "144200.457500", "144201.457500", "144202.457500", "144203.457500", "144204.457500", "144205.457500", "144206.457500", "144207.457500", "144208.457500", "144209.457500", "144210.457500", "144211.457500", "144212.457500", "144213.457500", "144214.457500", "144215.457500", "144216.457500", "144217.457500", "144218.457500", "144219.457500", "144220.457500", "144221.457500", "144222.457500", "144223.457500", "144224.457500", "144225.457500", "144226.457500", "144227.457500", "144228.457500", "144229.457500", "144230.457500", "144231.457500", "144232.457500", "144233.457500", "144234.457500", "144235.457500", "144236.457500", "144237.457500", "144238.457500", "144239.457500", "144240.457500", "144241.457500", "144242.457500", "144243.457500", "144244.457500", "144245.457500", "144246.457500", "144247.457500", "144248.457500", "144249.457500", "144250.457500", "144251.457500", "144252.457500", "144253.457500", "144254.457500", "144255.457500", "144256.457500", "144257.457500", "144258.457500", "144259.457500", "144300.457500", "144301.457500", "144302.457500", "144303.457500", "144304.457500", "144305.457500", "144306.457500", "144307.457500", "144308.457500", "144309.457500", "144310.457500", "144311.457500", "144312.457500", "144313.457500", "144314.457500", "144315.457500", "144316.457500", "144317.457500", "144318.457500", "144319.457500", "144320.457500", "144321.457500", "144322.457500", "144323.457500", "144324.457500", "144325.457500", "144326.457500", "144327.457500", "144328.457500", "144329.457500", "144330.457500", "144331.457500", "144332.457500", "144333.457500", "144334.457500", "144335.457500", "144336.457500", "144337.457500", "144338.457500", "144339.457500", "144340.457500", "144341.457500", "144342.457500", "144343.457500", "144344.457500", "144345.457500", "144346.457500", "144347.457500", "144348.457500", "144349.457500", "144350.457500", "144351.457500", "144352.457500", "144353.457500", "144354.457500", "144355.457500"],
      "ContentTime": ["144152.960000", "144152.964000", "144152.967000", "144152.970000", "144152.972000", "144152.975000", "144152.978000", "144152.981000", "144152.984000", "144152.987000", "144152.990000", "144152.993000", "144152.996000", "144153.016000", "144153.026000", "144153.029000", "144153.032000", "144153.035000", "144153.038000", "144153.041000", "144153.044000", "144153.047000", "144153.055000", "144153.058000", "144153.061000", "144153.064000", "144212.928000", "144212.939000", "144212.942000", "144212.945000", "144212.948000", "144212.951000", "144212.954000", "144212.957000", "144212.960000", "144212.963000", "144212.967000", "144212.970000", "144212.973000", "144212.976000", "144212.979000", "144212.982000", "144212.985000", "144212.988000", "144212.991000", "144212.994000", "144212.997000", "144213.000000", "144213.003000", "144213.006000", "144213.009000", "144213.012000", "144213.015000", "144213.018000", "144232.928000", "144232.931000", "144232.934000", "144232.937000", "144232.940000", "144232.943000", "144232.946000", "144232.949000", "144232.952000", "144232.955000", "144232.958000", "144232.961000", "144232.964000", "144232.967000", "144232.970000", "144232.973000", "144232.976000", "144232.979000", "144232.982000", "144232.985000", "144232.988000", "144232.991000", "144232.994000", "144232.997000", "144233.001000", "144233.004000", "144233.007000", "144233.010000", "144233.013000", "144252.928000", "144252.931000", "144252.934000", "144252.937000", "144252.940000", "144252.943000", "144252.946000", "144252.949000", "144252.952000", "144252.955000", "144252.958000", "144252.961000", "144252.964000", "144252.967000", "144252.970000", "144252.973000", "144252.976000", "144252.979000", "144252.982000", "144252.985000", "144252.995000", "144252.998000", "144253.002000", "144253.005000", "144253.008000", "144253.011000", "144253.014000", "144253.017000", "144312.928000", "144312.931000", "144312.934000", "144312.937000", "144312.940000", "144312.943000", "144312.946000", "144312.955000", "144312.958000", "144312.961000", "144312.964000", "144312.967000", "144312.970000", "144312.973000", "144312.976000", "144312.979000", "144312.982000", "144312.985000", "144312.988000", "144312.991000", "144312.993000", "144313.011000", "144313.014000", "144313.017000", "144313.020000", "144313.023000", "144313.026000", "144313.029000", "144332.928000", "144332.931000", "144332.934000", "144332.937000", "144332.940000", "144332.943000", "144332.946000", "144332.949000", "144332.952000", "144332.955000", "144332.958000", "144332.961000", "144332.964000", "144332.967000", "144332.970000", "144332.973000", "144332.976000", "144332.979000", "144332.982000", "144332.985000", "144332.988000", "144332.991000", "144332.994000", "144333.086000", "144333.090000", "144333.092000", "144333.095000", "144333.098000", "144333.101000", "144352.928000", "144352.931000", "144352.934000", "144352.937000", "144352.940000", "144352.943000", "144352.946000", "144352.949000", "144352.952000", "144352.955000", "144352.958000", "144352.961000", "144352.964000", "144352.967000", "144352.970000", "144352.973000", "144352.976000", "144352.979000", "144352.982000", "144352.985000", "144356.902000", "144356.905000", "144356.908000", "144356.911000"],
      "InstanceCreationTime": ["144152.960000", "144152.964000", "144152.967000", "144152.970000", "144152.972000", "144152.975000", "144152.978000", "144152.981000", "144152.984000", "144152.987000", "144152.990000", "144152.993000", "144152.996000", "144153.016000", "144153.026000", "144153.029000", "144153.032000", "144153.035000", "144153.038000", "144153.041000", "144153.044000", "144153.047000", "144153.055000", "144153.058000", "144153.061000", "144153.064000", "144212.928000", "144212.939000", "144212.942000", "144212.945000", "144212.948000", "144212.951000", "144212.954000", "144212.957000", "144212.960000", "144212.963000", "144212.967000", "144212.970000", "144212.973000", "144212.976000", "144212.979000", "144212.982000", "144212.985000", "144212.988000", "144212.991000", "144212.994000", "144212.997000", "144213.000000", "144213.003000", "144213.006000", "144213.009000", "144213.012000", "144213.015000", "144213.018000", "144232.928000", "144232.931000", "144232.934000", "144232.937000", "144232.940000", "144232.943000", "144232.946000", "144232.949000", "144232.952000", "144232.955000", "144232.958000", "144232.961000", "144232.964000", "144232.967000", "144232.970000", "144232.973000", "144232.976000", "144232.979000", "144232.982000", "144232.985000", "144232.988000", "144232.991000", "144232.994000", "144232.997000", "144233.001000", "144233.004000", "144233.007000", "144233.010000", "144233.013000", "144252.928000", "144252.931000", "144252.934000", "144252.937000", "144252.940000", "144252.943000", "144252.946000", "144252.949000", "144252.952000", "144252.955000", "144252.958000", "144252.961000", "144252.964000", "144252.967000", "144252.970000", "144252.973000", "144252.976000", "144252.979000", "144252.982000", "144252.985000", "144252.995000", "144252.998000", "144253.002000", "144253.005000", "144253.008000", "144253.011000", "144253.014000", "144253.017000", "144312.928000", "144312.931000", "144312.934000", "144312.937000", "144312.940000", "144312.943000", "144312.946000", "144312.955000", "144312.958000", "144312.961000", "144312.964000", "144312.967000", "144312.970000", "144312.973000", "144312.976000", "144312.979000", "144312.982000", "144312.985000", "144312.988000", "144312.991000", "144312.993000", "144313.011000", "144313.014000", "144313.017000", "144313.020000", "144313.023000", "144313.026000", "144313.029000", "144332.928000", "144332.931000", "144332.934000", "144332.937000", "144332.940000", "144332.943000", "144332.946000", "144332.949000", "144332.952000", "144332.955000", "144332.958000", "144332.961000", "144332.964000", "144332.967000", "144332.970000", "144332.973000", "144332.976000", "144332.979000", "144332.982000", "144332.985000", "144332.988000", "144332.991000", "144332.994000", "144333.086000", "144333.090000", "144333.092000", "144333.095000", "144333.098000", "144333.101000", "144352.928000", "144352.931000", "144352.934000", "144352.937000", "144352.940000", "144352.943000", "144352.946000", "144352.949000", "144352.952000", "144352.955000", "144352.958000", "144352.961000", "144352.964000", "144352.967000", "144352.970000", "144352.973000", "144352.976000", "144352.979000", "144352.982000", "144352.985000", "144356.902000", "144356.905000", "144356.908000", "144356.911000"],
      "InstanceNumber": [1, 2, 3, 4, 5, 6, 7, 8, 9, 10, 11, 12, 13, 14, 15, 16, 17, 18, 19, 20, 21, 22, 23, 24, 25, 26, 27, 28, 29, 30, 31, 32, 33, 34, 35, 36, 37, 38, 39, 40, 41, 42, 43, 44, 45, 46, 47, 48, 49, 50, 51, 52, 53, 54, 55, 56, 57, 58, 59, 60, 61, 62, 63, 64, 65, 66, 67, 68, 69, 70, 71, 72, 73, 74, 75, 76, 77, 78, 79, 80, 81, 82, 83, 84, 85, 86, 87, 88, 89, 90, 91, 92, 93, 94, 95, 96, 97, 98, 99, 100, 101, 102, 103, 104, 105, 106, 107, 108, 109, 110, 111, 112, 113, 114, 115, 116, 117, 118, 119, 120, 121, 122, 123, 124, 125, 126, 127, 128, 129, 130, 131, 132, 133, 134, 135, 136, 137, 138, 139, 140, 141, 142, 143, 144, 145, 146, 147, 148, 149, 150, 151, 152, 153, 154, 155, 156, 157, 158, 159, 160, 161, 162, 163, 164, 165, 166, 167, 168, 169, 170, 171, 172, 173, 174, 175, 176, 177, 178, 179, 180, 181, 182, 183, 184, 185, 186, 187, 188, 189, 190, 191, 192],
      "LargestImagePixelValue": [42037, 41124, 39936, 39824, 40162, 40182, 39833, 39813, 39950, 40189, 39033, 39824, 39852, 39793, 39355, 39506, 39522, 39968, 39478, 39668, 40087, 40533, 40199, 39699, 39676, 39971, 39761, 39309, 39637, 39360, 39531, 39386, 39421, 39655, 39567, 39693, 39364, 39683, 39504, 39653, 39688, 40153, 39874, 40179, 39902, 39812, 39384, 39626, 39659, 39207, 39503, 39294, 39207, 39161, 39151, 39193, 39343, 39549, 39326, 39414, 39334, 38938, 39241, 39289, 39325, 39403, 39610, 40073, 40005, 39502, 39544, 39533, 39427, 39013, 39702, 39686, 39714, 39391, 39747, 39245, 39504, 39754, 39358, 39356, 40066, 39626, 39409, 39680, 39845, 40001, 39841, 40015, 39407, 39016, 39179, 39131, 39377, 39760, 39626, 38862, 39035, 39384, 38906, 38849, 39098, 39211, 39675, 39059, 39991, 39611, 39550, 39412, 39756, 39733, 39943, 39657, 38961, 38962, 39350, 39185, 39599, 39695, 39619, 39468, 39459, 39540, 39462, 39272, 39490, 39981, 39383, 39307, 39513, 39610, 39354, 39307, 38889, 39152, 39660, 39325, 39163, 39897, 39594, 39170, 39805, 39160, 39293, 38844, 39404, 39447, 39252, 39027, 39875, 39501, 39060, 39319, 39946, 39215, 39362, 39790, 39440, 39686, 39708, 39210, 38976, 39330, 39667, 38882, 39419, 39110, 38739, 38767, 39462, 39662, 38893, 39163, 39222, 38624, 39236, 39279, 39431, 39457, 40107, 39662, 39384, 39088, 39699, 39663, 38832, 39482, 40067, 38926],
      "WindowCenter": [10221.0, 10186.0, 10158.0, 10150.0, 10152.0, 10145.0, 10139.0, 10134.0, 10137.0, 10144.0, 10135.0, 10139.0, 10146.0, 10148.0, 10143.0, 10147.0, 10149.0, 10163.0, 10150.0, 10154.0, 10155.0, 10160.0, 10152.0, 10146.0, 10152.0, 10151.0, 10152.0, 10150.0, 10157.0, 10158.0, 10157.0, 10153.0, 10150.0, 10156.0, 10156.0, 10156.0, 10150.0, 10149.0, 10146.0, 10156.0, 10165.0, 10172.0, 10163.0, 10159.0, 10140.0, 10132.0, 10119.0, 10123.0, 10124.0, 10131.0, 10132.0, 10139.0, 10141.0, 10137.0, 10134.0, 10134.0, 10135.0, 10139.0, 10132.0, 10126.0, 10133.0, 10135.0, 10141.0, 10142.0, 10145.0, 10148.0, 10153.0, 10146.0, 10144.0, 10145.0, 10156.0, 10150.0, 10150.0, 10146.0, 10151.0, 10150.0, 10148.0, 10138.0, 10136.0, 10130.0, 10137.0, 10143.0, 10137.0, 10144.0, 10150.0, 10148.0, 10143.0, 10152.0, 10150.0, 10149.0, 10142.0, 10138.0, 10124.0, 10114.0, 10111.0, 10105.0, 10109.0, 10113.0, 10115.0, 10110.0, 10111.0, 10117.0, 10104.0, 10104.0, 10111.0, 10117.0, 10117.0, 10112.0, 10122.0, 10119.0, 10119.0, 10120.0, 10127.0, 10125.0, 10130.0, 10131.0, 10118.0, 10114.0, 10112.0, 10106.0, 10116.0, 10114.0, 10108.0, 10103.0, 10107.0, 10108.0, 10108.0, 10108.0, 10122.0, 10130.0, 10125.0, 10126.0, 10126.0, 10125.0, 10124.0, 10119.0, 10126.0, 10120.0, 10125.0, 10119.0, 10114.0, 10121.0, 10115.0, 10110.0, 10116.0, 10111.0, 10116.0, 10114.0, 10120.0, 10118.0, 10105.0, 10105.0, 10117.0, 10111.0, 10107.0, 10118.0, 10125.0, 10112.0, 10118.0, 10125.0, 10120.0, 10127.0, 10141.0, 10142.0, 10136.0, 10136.0, 10140.0, 10125.0, 10126.0, 10133.0, 10130.0, 10132.0, 10136.0, 10134.0, 10127.0, 10119.0, 10118.0, 10114.0, 10125.0, 10121.0, 10115.0, 10111.0, 10116.0, 10112.0, 10111.0, 10112.0, 10113.0, 10103.0, 10092.0, 10097.0, 10107.0, 10098.0],
      "WindowWidth": [21946.0, 21848.0, 21776.0, 21756.0, 21756.0, 21737.0, 21722.0, 21715.0, 21718.0, 21733.0, 21716.0, 21724.0, 21737.0, 21743.0, 21734.0, 21744.0, 21751.0, 21782.0, 21757.0, 21762.0, 21764.0, 21772.0, 21752.0, 21737.0, 21746.0, 21746.0, 21749.0, 21749.0, 21767.0, 21771.0, 21769.0, 21760.0, 21752.0, 21763.0, 21764.0, 21764.0, 21753.0, 21750.0, 21747.0, 21769.0, 21794.0, 21806.0, 21781.0, 21763.0, 21720.0, 21699.0, 21674.0, 21678.0, 21684.0, 21697.0, 21702.0, 21720.0, 21724.0, 21716.0, 21710.0, 21711.0, 21712.0, 21719.0, 21704.0, 21692.0, 21706.0, 21711.0, 21726.0, 21733.0, 21743.0, 21752.0, 21765.0, 21749.0, 21743.0, 21744.0, 21764.0, 21751.0, 21752.0, 21744.0, 21753.0, 21749.0, 21744.0, 21725.0, 21719.0, 21707.0, 21724.0, 21735.0, 21723.0, 21742.0, 21755.0, 21751.0, 21743.0, 21762.0, 21754.0, 21750.0, 21732.0, 21713.0, 21682.0, 21664.0, 21653.0, 21639.0, 21648.0, 21652.0, 21657.0, 21650.0, 21656.0, 21668.0, 21641.0, 21642.0, 21659.0, 21673.0, 21672.0, 21664.0, 21685.0, 21680.0, 21681.0, 21683.0, 21699.0, 21692.0, 21701.0, 21700.0, 21673.0, 21664.0, 21659.0, 21646.0, 21665.0, 21660.0, 21644.0, 21634.0, 21640.0, 21643.0, 21642.0, 21645.0, 21678.0, 21696.0, 21684.0, 21689.0, 21689.0, 21687.0, 21684.0, 21678.0, 21692.0, 21681.0, 21688.0, 21675.0, 21667.0, 21675.0, 21660.0, 21652.0, 21665.0, 21654.0, 21666.0, 21667.0, 21681.0, 21674.0, 21646.0, 21644.0, 21669.0, 21659.0, 21653.0, 21677.0, 21690.0, 21663.0, 21675.0, 21694.0, 21685.0, 21700.0, 21733.0, 21734.0, 21721.0, 21718.0, 21721.0, 21685.0, 21688.0, 21705.0, 21703.0, 21713.0, 21717.0, 21710.0, 21692.0, 21670.0, 21668.0, 21663.0, 21688.0, 21683.0, 21670.0, 21660.0, 21669.0, 21660.0, 21657.0, 21662.0, 21661.0, 21635.0, 21614.0, 21624.0, 21644.0, 21625.0]
    },
    "slices": {}
  },
  "NumberOfVolumes": 192
}