{
  "aor": 0.0005042931937172774,
  "aqi": 0.0055716761256544515,
  "bids_meta": {
    "AcquisitionMatrixPE": 104,
    "AcquisitionNumber": 1,
    "AcquisitionTime": "16:30:24.560000",
    "BandwidthPerPixelPhaseEncode": 16.578,
    "BaseResolution": 104,
    "BodyPartExamined": "BRAIN",
    "CogAtlasID": "TODO",
    "ConsistencyInfo": "N4_VE11C_LATEST_20160120",
    "ConversionSoftware": "dcm2niix",
    "ConversionSoftwareVersion": "v1.0.20190902",
    "DerivedVendorReportedEchoSpacing": 0.000580009,
    "DeviceSerialNumber": "166018",
    "DwellTime": 2.1e-06,
    "EchoTime": 0.037,
    "EchoTrainLength": 104,
    "EffectiveEchoSpacing": 0.000580009,
    "FlipAngle": 68,
    "ImageComments": "Unaliased_MB6_PE3_LB",
    "ImageOrientationPatientDICOM": [
      0.998521,
      -0.0247588,
      0.048393,
      0.0415013,
      0.922188,
      -0.38451
    ],
    "ImageType": [
      "ORIGINAL",
      "PRIMARY",
      "M",
      "MB",
      "ND",
      "MOSAIC"
    ],
    "ImagingFrequency": 123.191,
    "InPlanePhaseEncodingDirectionDICOM": "COL",
    "InstitutionAddress": "Washington_Place_6_NYC_NYC_US_10003",
    "InstitutionName": "NYU_-_CBI",
    "InstitutionalDepartmentName": "Department",
    "MRAcquisitionType": "2D",
    "MagneticFieldStrength": 3,
    "Manufacturer": "Siemens",
    "ManufacturersModelName": "Prisma",
    "Modality": "MR",
    "MultibandAccelerationFactor": 6,
    "NumberOfVolumes": 192,
    "PartialFourier": 1,
    "PatientPosition": "HFS",
    "PercentPhaseFOV": 100,
    "PhaseEncodingDirection": "j",
    "PhaseEncodingSteps": 104,
    "PhaseResolution": 1,
    "PixelBandwidth": 2290,
    "ProcedureStepDescription": "Investigators_Winawer",
    "ProtocolName": "cmrr_mbepi_s6_2mm_66sl_PA_TR1.0",
    "PulseSequenceDetails": "%CustomerSeq%_cmrr_mbep2d_bold",
    "ReceiveCoilActiveElements": "HC1-7",
    "ReceiveCoilName": "HeadNeck_64",
    "ReconMatrixPE": 104,
    "RepetitionTime": 1,
    "SAR": 0.065334,
    "ScanOptions": "FS",
    "ScanningSequence": "EP",
    "SequenceName": "epfid2d1_104",
    "SequenceVariant": "SK_SS",
    "SeriesDescription": "cmrr_mbepi_s6_2mm_66sl_PA_TR1.0",
    "SeriesNumber": 32,
    "ShimSetting": [
      261,
      -12580,
      -8459,
      482,
      6,
      -143,
      -82,
      -33
    ],
    "SliceThickness": 2,
    "SliceTiming": [
      0,
      0.535,
      0.09,
      0.6225,
      0.1775,
      0.7125,
      0.2675,
      0.8025,
      0.3575,
      0.89,
      0.445,
      0,
      0.535,
      0.09,
      0.6225,
      0.1775,
      0.7125,
      0.2675,
      0.8025,
      0.3575,
      0.89,
      0.445,
      0,
      0.535,
      0.09,
      0.6225,
      0.1775,
      0.7125,
      0.2675,
      0.8025,
      0.3575,
      0.89,
      0.445,
      0,
      0.535,
      0.09,
      0.6225,
      0.1775,
      0.7125,
      0.2675,
      0.8025,
      0.3575,
      0.89,
      0.445,
      0,
      0.535,
      0.09,
      0.6225,
      0.1775,
      0.7125,
      0.2675,
      0.8025,
      0.3575,
      0.89,
      0.445,
      0,
      0.535,
      0.09,
      0.6225,
      0.1775,
      0.7125,
      0.2675,
      0.8025,
      0.3575,
      0.89,
      0.445
    ],
    "SoftwareVersions": "syngo_MR_E11",
    "SpacingBetweenSlices": 2,
    "StationName": "AWP166018",
    "TaskName": "prf",
    "TotalReadoutTime": 0.0597409,
    "TxRefAmp": 234.373,
    "WipMemBlock": "f00b4274-79a4-428b-adfe-eeddc02bcf75||Sequence: ve11c/master r/ab69a6c; Apr 19 2017 09:47:47 by eja",
    "acq_id": "PA",
    "dataset": "unknown",
    "dcmmeta_affine": [
      [
        -1.9970428943634033,
        0.0830025002360344,
        0.0702148973941803,
        110.34679412841797
      ],
      [
        0.049517672508955,
        1.8443751335144043,
        -0.7718992829322815,
        -64.71625518798828
      ],
      [
        0.09678608924150467,
        0.7690195441246033,
        1.843703269958496,
        -96.47901916503906
      ],
      [
        0.0,
        0.0,
        0.0,
        1.0
      ]
    ],
    "dcmmeta_reorient_transform": [
      [
        0.0,
        -1.0,
        0.0,
        103.0
      ],
      [
        1.0,
        0.0,
        0.0,
        0.0
      ],
      [
        0.0,
        0.0,
        1.0,
        0.0
      ],
      [
        0.0,
        0.0,
        0.0,
        1.0
      ]
    ],
    "dcmmeta_shape": [
      104,
      104,
      66,
      192
    ],
    "dcmmeta_slice_dim": 2,
    "dcmmeta_version": 0.6,
    "global": {
      "const": {
        "AccessionNumber": "j6wepnxe",
        "AcquisitionMatrix": [
          104,
          0,
          0,
          104
        ],
        "AngioFlag": "N",
        "BitsAllocated": 16,
        "BitsStored": 16,
        "BodyPartExamined": "BRAIN",
        "Columns": 936,
        "EchoNumbers": 1,
        "EchoTime": 37.0,
        "EchoTrainLength": 104,
        "FlipAngle": 68.0,
        "HighBit": 15,
        "ImageOrientationPatient": [
          0.99852146361479,
          -0.0247588370637,
          0.04839304379581,
          0.04150125035507,
          0.9221875559071,
          -0.3845097631388
        ],
        "ImagePositionPatient": [
          -984.19494958396,
          -871.91507572875,
          262.37910260703
        ],
        "ImageType": [
          "ORIGINAL",
          "PRIMARY",
          "M",
          "MB",
          "ND",
          "MOSAIC"
        ],
        "ImagedNucleus": "1H",
        "ImagingFrequency": 123.191345,
        "InPlanePhaseEncodingDirection": "COL",
        "MRAcquisitionType": "2D",
        "MagneticFieldStrength": 3.0,
        "Manufacturer": "SIEMENS",
        "ManufacturerModelName": "Prisma",
        "Modality": "MR",
        "NumberOfAverages": 1.0,
        "NumberOfPhaseEncodingSteps": 104,
        "PercentPhaseFieldOfView": 100.0,
        "PercentSampling": 100.0,
        "PerformedProcedureStepStartTime": "154117.736000",
        "PhotometricInterpretation": "MONOCHROME2",
        "PixelBandwidth": 2290.0,
        "PixelRepresentation": 0,
        "PixelSpacing": [
          2.0,
          2.0
        ],
        "ProtocolName": "cmrr_mbepi_s6_2mm_66sl_PA_TR1.0",
        "RepetitionTime": 1000.0,
        "Rows": 936,
        "SAR": 0.06533400942532,
        "SamplesPerPixel": 1,
        "ScanOptions": "FS",
        "ScanningSequence": "EP",
        "SequenceName": "epfid2d1_104",
        "SequenceVariant": [
          "SK",
          "SS"
        ],
        "SeriesDescription": "cmrr_mbepi_s6_2mm_66sl_PA_TR1.0",
        "SeriesNumber": 32,
        "SeriesTime": "163138.479000",
        "SliceLocation": -60.088128683745,
        "SliceThickness": 2.0,
        "SmallestImagePixelValue": 0,
        "SoftwareVersions": "syngo MR E11",
        "SpacingBetweenSlices": 2.0000000486852,
        "SpecificCharacterSet": "ISO_IR 100",
        "StudyID": "1",
        "StudyTime": "154117.674000",
        "TransmitCoilName": "Body",
        "VariableFlipAngleFlag": "N",
        "WindowCenterWidthExplanation": "Algo1",
        "dBdt": 0.0
      },
      "slices": {}
    },
    "modality": "bold",
    "run_id": 12,
    "session_id": "nyu3t01",
    "subject_id": "wlsubj043",
    "task_id": "prf",
    "time": {
      "samples": {
        "AcquisitionNumber": [
          1,
          2,
          3,
          4,
          5,
          6,
          7,
          8,
          9,
          10,
          11,
          12,
          13,
          14,
          15,
          16,
          17,
          18,
          19,
          20,
          21,
          22,
          23,
          24,
          25,
          26,
          27,
          28,
          29,
          30,
          31,
          32,
          33,
          34,
          35,
          36,
          37,
          38,
          39,
          40,
          41,
          42,
          43,
          44,
          45,
          46,
          47,
          48,
          49,
          50,
          51,
          52,
          53,
          54,
          55,
          56,
          57,
          58,
          59,
          60,
          61,
          62,
          63,
          64,
          65,
          66,
          67,
          68,
          69,
          70,
          71,
          72,
          73,
          74,
          75,
          76,
          77,
          78,
          79,
          80,
          81,
          82,
          83,
          84,
          85,
          86,
          87,
          88,
          89,
          90,
          91,
          92,
          93,
          94,
          95,
          96,
          97,
          98,
          99,
          100,
          101,
          102,
          103,
          104,
          105,
          106,
          107,
          108,
          109,
          110,
          111,
          112,
          113,
          114,
          115,
          116,
          117,
          118,
          119,
          120,
          121,
          122,
          123,
          124,
          125,
          126,
          127,
          128,
          129,
          130,
          131,
          132,
          133,
          134,
          135,
          136,
          137,
          138,
          139,
          140,
          141,
          142,
          143,
          144,
          145,
          146,
          147,
          148,
          149,
          150,
          151,
          152,
          153,
          154,
          155,
          156,
          157,
          158,
          159,
          160,
          161,
          162,
          163,
          164,
          165,
          166,
          167,
          168,
          169,
          170,
          171,
          172,
          173,
          174,
          175,
          176,
          177,
          178,
          179,
          180,
          181,
          182,
          183,
          184,
          185,
          186,
          187,
          188,
          189,
          190,
          191,
          192
        ],
        "AcquisitionTime": [
          "163024.560000",
          "163025.560000",
          "163026.560000",
          "163027.560000",
          "163028.560000",
          "163029.560000",
          "163030.560000",
          "163031.560000",
          "163032.560000",
          "163033.560000",
          "163034.560000",
          "163035.560000",
          "163036.560000",
          "163037.560000",
          "163038.560000",
          "163039.560000",
          "163040.560000",
          "163041.560000",
          "163042.560000",
          "163043.560000",
          "163044.560000",
          "163045.560000",
          "163046.560000",
          "163047.560000",
          "163048.560000",
          "163049.560000",
          "163050.560000",
          "163051.560000",
          "163052.560000",
          "163053.560000",
          "163054.560000",
          "163055.560000",
          "163056.560000",
          "163057.560000",
          "163058.560000",
          "163059.560000",
          "163100.560000",
          "163101.560000",
          "163102.560000",
          "163103.560000",
          "163104.560000",
          "163105.560000",
          "163106.560000",
          "163107.560000",
          "163108.560000",
          "163109.560000",
          "163110.560000",
          "163111.560000",
          "163112.560000",
          "163113.560000",
          "163114.560000",
          "163115.560000",
          "163116.560000",
          "163117.560000",
          "163118.560000",
          "163119.560000",
          "163120.560000",
          "163121.560000",
          "163122.560000",
          "163123.560000",
          "163124.560000",
          "163125.560000",
          "163126.560000",
          "163127.560000",
          "163128.560000",
          "163129.560000",
          "163130.560000",
          "163131.560000",
          "163132.560000",
          "163133.560000",
          "163134.560000",
          "163135.560000",
          "163136.560000",
          "163137.560000",
          "163138.560000",
          "163139.560000",
          "163140.560000",
          "163141.560000",
          "163142.560000",
          "163143.560000",
          "163144.560000",
          "163145.560000",
          "163146.560000",
          "163147.560000",
          "163148.560000",
          "163149.560000",
          "163150.560000",
          "163151.560000",
          "163152.560000",
          "163153.560000",
          "163154.560000",
          "163155.560000",
          "163156.560000",
          "163157.560000",
          "163158.560000",
          "163159.560000",
          "163200.560000",
          "163201.560000",
          "163202.560000",
          "163203.560000",
          "163204.560000",
          "163205.560000",
          "163206.560000",
          "163207.560000",
          "163208.560000",
          "163209.560000",
          "163210.560000",
          "163211.560000",
          "163212.560000",
          "163213.560000",
          "163214.560000",
          "163215.560000",
          "163216.560000",
          "163217.560000",
          "163218.560000",
          "163219.560000",
          "163220.560000",
          "163221.560000",
          "163222.560000",
          "163223.560000",
          "163224.560000",
          "163225.560000",
          "163226.560000",
          "163227.560000",
          "163228.560000",
          "163229.560000",
          "163230.560000",
          "163231.560000",
          "163232.560000",
          "163233.560000",
          "163234.560000",
          "163235.560000",
          "163236.560000",
          "163237.560000",
          "163238.560000",
          "163239.560000",
          "163240.560000",
          "163241.560000",
          "163242.560000",
          "163243.560000",
          "163244.560000",
          "163245.560000",
          "163246.560000",
          "163247.560000",
          "163248.560000",
          "163249.560000",
          "163250.560000",
          "163251.560000",
          "163252.560000",
          "163253.560000",
          "163254.560000",
          "163255.560000",
          "163256.560000",
          "163257.560000",
          "163258.560000",
          "163259.560000",
          "163300.560000",
          "163301.560000",
          "163302.560000",
          "163303.560000",
          "163304.560000",
          "163305.560000",
          "163306.560000",
          "163307.560000",
          "163308.560000",
          "163309.560000",
          "163310.560000",
          "163311.560000",
          "163312.560000",
          "163313.560000",
          "163314.560000",
          "163315.560000",
          "163316.560000",
          "163317.560000",
          "163318.560000",
          "163319.560000",
          "163320.560000",
          "163321.560000",
          "163322.560000",
          "163323.560000",
          "163324.560000",
          "163325.560000",
          "163326.560000",
          "163327.560000",
          "163328.560000",
          "163329.560000",
          "163330.560000",
          "163331.560000",
          "163332.560000",
          "163333.560000",
          "163334.560000",
          "163335.560000"
        ],
        "ContentTime": [
          "163138.482000",
          "163138.485000",
          "163138.488000",
          "163138.491000",
          "163138.494000",
          "163138.497000",
          "163138.500000",
          "163138.503000",
          "163138.506000",
          "163138.509000",
          "163138.512000",
          "163138.523000",
          "163138.526000",
          "163138.529000",
          "163138.532000",
          "163138.535000",
          "163138.538000",
          "163138.541000",
          "163138.544000",
          "163138.547000",
          "163138.550000",
          "163138.553000",
          "163138.556000",
          "163138.559000",
          "163138.562000",
          "163138.565000",
          "163138.568000",
          "163138.571000",
          "163138.574000",
          "163138.577000",
          "163138.580000",
          "163138.583000",
          "163138.586000",
          "163158.449000",
          "163158.452000",
          "163158.455000",
          "163158.458000",
          "163158.461000",
          "163158.465000",
          "163158.468000",
          "163158.471000",
          "163158.474000",
          "163158.477000",
          "163158.480000",
          "163158.483000",
          "163158.486000",
          "163158.489000",
          "163158.492000",
          "163158.495000",
          "163158.498000",
          "163158.501000",
          "163158.504000",
          "163158.507000",
          "163158.510000",
          "163158.513000",
          "163158.516000",
          "163158.519000",
          "163158.522000",
          "163158.525000",
          "163158.528000",
          "163158.531000",
          "163158.534000",
          "163218.449000",
          "163218.452000",
          "163218.455000",
          "163218.458000",
          "163218.461000",
          "163218.464000",
          "163218.467000",
          "163218.470000",
          "163218.473000",
          "163218.476000",
          "163218.479000",
          "163218.482000",
          "163218.485000",
          "163218.488000",
          "163218.491000",
          "163218.494000",
          "163218.497000",
          "163218.500000",
          "163218.503000",
          "163218.506000",
          "163218.509000",
          "163218.512000",
          "163218.515000",
          "163218.518000",
          "163218.521000",
          "163218.531000",
          "163218.534000",
          "163218.537000",
          "163238.449000",
          "163238.452000",
          "163238.455000",
          "163238.458000",
          "163238.461000",
          "163238.464000",
          "163238.467000",
          "163238.470000",
          "163238.473000",
          "163238.476000",
          "163238.479000",
          "163238.482000",
          "163238.485000",
          "163238.488000",
          "163238.491000",
          "163238.494000",
          "163238.497000",
          "163238.500000",
          "163238.503000",
          "163238.506000",
          "163238.509000",
          "163238.512000",
          "163238.515000",
          "163238.518000",
          "163238.522000",
          "163238.526000",
          "163238.530000",
          "163238.533000",
          "163258.449000",
          "163258.452000",
          "163258.455000",
          "163258.458000",
          "163258.461000",
          "163258.464000",
          "163258.467000",
          "163258.470000",
          "163258.473000",
          "163258.476000",
          "163258.479000",
          "163258.482000",
          "163258.485000",
          "163258.488000",
          "163258.491000",
          "163258.494000",
          "163258.497000",
          "163258.500000",
          "163258.503000",
          "163258.506000",
          "163258.509000",
          "163258.512000",
          "163258.515000",
          "163258.518000",
          "163258.521000",
          "163258.524000",
          "163258.527000",
          "163258.530000",
          "163258.533000",
          "163318.450000",
          "163318.453000",
          "163318.456000",
          "163318.459000",
          "163318.462000",
          "163318.466000",
          "163318.479000",
          "163318.482000",
          "163318.485000",
          "163318.488000",
          "163318.491000",
          "163318.494000",
          "163318.497000",
          "163318.500000",
          "163318.503000",
          "163318.506000",
          "163318.509000",
          "163318.512000",
          "163318.515000",
          "163318.518000",
          "163318.521000",
          "163318.524000",
          "163318.527000",
          "163318.530000",
          "163318.533000",
          "163337.508000",
          "163337.514000",
          "163337.518000",
          "163337.521000",
          "163337.524000",
          "163337.528000",
          "163337.531000",
          "163337.535000",
          "163337.539000",
          "163337.544000",
          "163337.549000",
          "163337.552000",
          "163337.556000",
          "163337.560000",
          "163337.566000",
          "163337.569000",
          "163337.572000",
          "163337.576000",
          "163337.579000",
          "163337.584000"
        ],
        "InstanceCreationTime": [
          "163138.482000",
          "163138.485000",
          "163138.488000",
          "163138.491000",
          "163138.494000",
          "163138.497000",
          "163138.500000",
          "163138.503000",
          "163138.506000",
          "163138.509000",
          "163138.512000",
          "163138.523000",
          "163138.526000",
          "163138.529000",
          "163138.532000",
          "163138.535000",
          "163138.538000",
          "163138.541000",
          "163138.544000",
          "163138.547000",
          "163138.550000",
          "163138.553000",
          "163138.556000",
          "163138.559000",
          "163138.562000",
          "163138.565000",
          "163138.568000",
          "163138.571000",
          "163138.574000",
          "163138.577000",
          "163138.580000",
          "163138.583000",
          "163138.586000",
          "163158.449000",
          "163158.452000",
          "163158.455000",
          "163158.458000",
          "163158.461000",
          "163158.465000",
          "163158.468000",
          "163158.471000",
          "163158.474000",
          "163158.477000",
          "163158.480000",
          "163158.483000",
          "163158.486000",
          "163158.489000",
          "163158.492000",
          "163158.495000",
          "163158.498000",
          "163158.501000",
          "163158.504000",
          "163158.507000",
          "163158.510000",
          "163158.513000",
          "163158.516000",
          "163158.519000",
          "163158.522000",
          "163158.525000",
          "163158.528000",
          "163158.531000",
          "163158.534000",
          "163218.449000",
          "163218.452000",
          "163218.455000",
          "163218.458000",
          "163218.461000",
          "163218.464000",
          "163218.467000",
          "163218.470000",
          "163218.473000",
          "163218.476000",
          "163218.479000",
          "163218.482000",
          "163218.485000",
          "163218.488000",
          "163218.491000",
          "163218.494000",
          "163218.497000",
          "163218.500000",
          "163218.503000",
          "163218.506000",
          "163218.509000",
          "163218.512000",
          "163218.515000",
          "163218.518000",
          "163218.521000",
          "163218.531000",
          "163218.534000",
          "163218.537000",
          "163238.449000",
          "163238.452000",
          "163238.455000",
          "163238.458000",
          "163238.461000",
          "163238.464000",
          "163238.467000",
          "163238.470000",
          "163238.473000",
          "163238.476000",
          "163238.479000",
          "163238.482000",
          "163238.485000",
          "163238.488000",
          "163238.491000",
          "163238.494000",
          "163238.497000",
          "163238.500000",
          "163238.503000",
          "163238.506000",
          "163238.509000",
          "163238.512000",
          "163238.515000",
          "163238.518000",
          "163238.522000",
          "163238.526000",
          "163238.530000",
          "163238.533000",
          "163258.449000",
          "163258.452000",
          "163258.455000",
          "163258.458000",
          "163258.461000",
          "163258.464000",
          "163258.467000",
          "163258.470000",
          "163258.473000",
          "163258.476000",
          "163258.479000",
          "163258.482000",
          "163258.485000",
          "163258.488000",
          "163258.491000",
          "163258.494000",
          "163258.497000",
          "163258.500000",
          "163258.503000",
          "163258.506000",
          "163258.509000",
          "163258.512000",
          "163258.515000",
          "163258.518000",
          "163258.521000",
          "163258.524000",
          "163258.527000",
          "163258.530000",
          "163258.533000",
          "163318.450000",
          "163318.453000",
          "163318.456000",
          "163318.459000",
          "163318.462000",
          "163318.466000",
          "163318.479000",
          "163318.482000",
          "163318.485000",
          "163318.488000",
          "163318.491000",
          "163318.494000",
          "163318.497000",
          "163318.500000",
          "163318.503000",
          "163318.506000",
          "163318.509000",
          "163318.512000",
          "163318.515000",
          "163318.518000",
          "163318.521000",
          "163318.524000",
          "163318.527000",
          "163318.530000",
          "163318.533000",
          "163337.508000",
          "163337.514000",
          "163337.518000",
          "163337.521000",
          "163337.524000",
          "163337.528000",
          "163337.531000",
          "163337.535000",
          "163337.539000",
          "163337.544000",
          "163337.549000",
          "163337.552000",
          "163337.556000",
          "163337.560000",
          "163337.566000",
          "163337.569000",
          "163337.572000",
          "163337.576000",
          "163337.579000",
          "163337.584000"
        ],
        "InstanceNumber": [
          1,
          2,
          3,
          4,
          5,
          6,
          7,
          8,
          9,
          10,
          11,
          12,
          13,
          14,
          15,
          16,
          17,
          18,
          19,
          20,
          21,
          22,
          23,
          24,
          25,
          26,
          27,
          28,
          29,
          30,
          31,
          32,
          33,
          34,
          35,
          36,
          37,
          38,
          39,
          40,
          41,
          42,
          43,
          44,
          45,
          46,
          47,
          48,
          49,
          50,
          51,
          52,
          53,
          54,
          55,
          56,
          57,
          58,
          59,
          60,
          61,
          62,
          63,
          64,
          65,
          66,
          67,
          68,
          69,
          70,
          71,
          72,
          73,
          74,
          75,
          76,
          77,
          78,
          79,
          80,
          81,
          82,
          83,
          84,
          85,
          86,
          87,
          88,
          89,
          90,
          91,
          92,
          93,
          94,
          95,
          96,
          97,
          98,
          99,
          100,
          101,
          102,
          103,
          104,
          105,
          106,
          107,
          108,
          109,
          110,
          111,
          112,
          113,
          114,
          115,
          116,
          117,
          118,
          119,
          120,
          121,
          122,
          123,
          124,
          125,
          126,
          127,
          128,
          129,
          130,
          131,
          132,
          133,
          134,
          135,
          136,
          137,
          138,
          139,
          140,
          141,
          142,
          143,
          144,
          145,
          146,
          147,
          148,
          149,
          150,
          151,
          152,
          153,
          154,
          155,
          156,
          157,
          158,
          159,
          160,
          161,
          162,
          163,
          164,
          165,
          166,
          167,
          168,
          169,
          170,
          171,
          172,
          173,
          174,
          175,
          176,
          177,
          178,
          179,
          180,
          181,
          182,
          183,
          184,
          185,
          186,
          187,
          188,
          189,
          190,
          191,
          192
        ],
        "LargestImagePixelValue": [
          33435,
          32335,
          32022,
          31489,
          31883,
          31768,
          32062,
          32052,
          31754,
          31941,
          32365,
          31232,
          31356,
          31762,
          31751,
          31699,
          31848,
          31893,
          31703,
          31860,
          31926,
          31837,
          31702,
          31693,
          31815,
          31666,
          31555,
          31462,
          31784,
          32062,
          31488,
          31640,
          31974,
          31520,
          31831,
          31721,
          31424,
          31709,
          31687,
          31441,
          31711,
          31459,
          31522,
          31768,
          31601,
          31405,
          31627,
          31779,
          31513,
          31412,
          32094,
          31650,
          31674,
          31701,
          31923,
          31560,
          31782,
          31395,
          31668,
          31673,
          31723,
          31597,
          31487,
          31512,
          31743,
          31610,
          31699,
          31501,
          31411,
          31737,
          31670,
          31740,
          31578,
          31491,
          31849,
          31593,
          31650,
          31601,
          32070,
          32411,
          31845,
          31770,
          31902,
          31967,
