{
  "aor": 0.0005301570680628273,
  "aqi": 0.0051856029319371725,
  "bids_meta": {
    "AcquisitionMatrixPE": 104,
    "AcquisitionNumber": 1,
    "AcquisitionTime": "16:19:13.515000",
    "BandwidthPerPixelPhaseEncode": 16.578,
    "BaseResolution": 104,
    "BodyPartExamined": "BRAIN",
    "CogAtlasID": "TODO",
    "ConsistencyInfo": "N4_VE11C_LATEST_20160120",
    "ConversionSoftware": "dcm2niix",
    "ConversionSoftwareVersion": "v1.0.20190902",
    "DerivedVendorReportedEchoSpacing": 0.000580009,
    "DeviceSerialNumber": "166018",
    "DwellTime": 2.1e-06,
    "EchoTime": 0.037,
    "EchoTrainLength": 104,
    "EffectiveEchoSpacing": 0.000580009,
    "FlipAngle": 68,
    "ImageComments": "Unaliased_MB6_PE3_LB",
    "ImageOrientationPatientDICOM": [
      0.998521,
      -0.0247588,
      0.048393,
      0.0415013,
      0.922188,
      -0.38451
    ],
    "ImageType": [
      "ORIGINAL",
      "PRIMARY",
      "M",
      "MB",
      "ND",
      "MOSAIC"
    ],
    "ImagingFrequency": 123.191,
    "InPlanePhaseEncodingDirectionDICOM": "COL",
    "InstitutionAddress": "Washington_Place_6_NYC_NYC_US_10003",
    "InstitutionName": "NYU_-_CBI",
    "InstitutionalDepartmentName": "Department",
    "MRAcquisitionType": "2D",
    "MagneticFieldStrength": 3,
    "Manufacturer": "Siemens",
    "ManufacturersModelName": "Prisma",
    "Modality": "MR",
    "MultibandAccelerationFactor": 6,
    "NumberOfVolumes": 192,
    "PartialFourier": 1,
    "PatientPosition": "HFS",
    "PercentPhaseFOV": 100,
    "PhaseEncodingDirection": "j",
    "PhaseEncodingSteps": 104,
    "PhaseResolution": 1,
    "PixelBandwidth": 2290,
    "ProcedureStepDescription": "Investigators_Winawer",
    "ProtocolName": "cmrr_mbepi_s6_2mm_66sl_PA_TR1.0",
    "PulseSequenceDetails": "%CustomerSeq%_cmrr_mbep2d_bold",
    "ReceiveCoilActiveElements": "HC1-7",
    "ReceiveCoilName": "HeadNeck_64",
    "ReconMatrixPE": 104,
    "RepetitionTime": 1,
    "SAR": 0.065334,
    "ScanOptions": "FS",
    "ScanningSequence": "EP",
    "SequenceName": "epfid2d1_104",
    "SequenceVariant": "SK_SS",
    "SeriesDescription": "cmrr_mbepi_s6_2mm_66sl_PA_TR1.0",
    "SeriesNumber": 26,
    "ShimSetting": [
      261,
      -12580,
      -8459,
      482,
      6,
      -143,
      -82,
      -33
    ],
    "SliceThickness": 2,
    "SliceTiming": [
      0,
      0.5325,
      0.0875,
      0.6225,
      0.1775,
      0.7125,
      0.265,
      0.8,
      0.355,
      0.89,
      0.445,
      0,
      0.5325,
      0.0875,
      0.6225,
      0.1775,
      0.7125,
      0.265,
      0.8,
      0.355,
      0.89,
      0.445,
      0,
      0.5325,
      0.0875,
      0.6225,
      0.1775,
      0.7125,
      0.265,
      0.8,
      0.355,
      0.89,
      0.445,
      0,
      0.5325,
      0.0875,
      0.6225,
      0.1775,
      0.7125,
      0.265,
      0.8,
      0.355,
      0.89,
      0.445,
      0,
      0.5325,
      0.0875,
      0.6225,
      0.1775,
      0.7125,
      0.265,
      0.8,
      0.355,
      0.89,
      0.445,
      0,
      0.5325,
      0.0875,
      0.6225,
      0.1775,
      0.7125,
      0.265,
      0.8,
      0.355,
      0.89,
      0.445
    ],
    "SoftwareVersions": "syngo_MR_E11",
    "SpacingBetweenSlices": 2,
    "StationName": "AWP166018",
    "TaskName": "prf",
    "TotalReadoutTime": 0.0597409,
    "TxRefAmp": 234.373,
    "WipMemBlock": "f00b4274-79a4-428b-adfe-eeddc02bcf75||Sequence: ve11c/master r/ab69a6c; Apr 19 2017 09:47:47 by eja",
    "acq_id": "PA",
    "dataset": "unknown",
    "dcmmeta_affine": [
      [
        -1.9970428943634033,
        0.0830025002360344,
        0.0702148973941803,
        110.34679412841797
      ],
      [
        0.049517672508955,
        1.8443751335144043,
        -0.7718992829322815,
        -64.71625518798828
      ],
      [
        0.09678608924150467,
        0.7690195441246033,
        1.843703269958496,
        -96.47901916503906
      ],
      [
        0.0,
        0.0,
        0.0,
        1.0
      ]
    ],
    "dcmmeta_reorient_transform": [
      [
        0.0,
        -1.0,
        0.0,
        103.0
      ],
      [
        1.0,
        0.0,
        0.0,
        0.0
      ],
      [
        0.0,
        0.0,
        1.0,
        0.0
      ],
      [
        0.0,
        0.0,
        0.0,
        1.0
      ]
    ],
    "dcmmeta_shape": [
      104,
      104,
      66,
      192
    ],
    "dcmmeta_slice_dim": 2,
    "dcmmeta_version": 0.6,
    "global": {
      "const": {
        "AccessionNumber": "j6wepnxe",
        "AcquisitionMatrix": [
          104,
          0,
          0,
          104
        ],
        "AngioFlag": "N",
        "BitsAllocated": 16,
        "BitsStored": 16,
        "BodyPartExamined": "BRAIN",
        "Columns": 936,
        "EchoNumbers": 1,
        "EchoTime": 37.0,
        "EchoTrainLength": 104,
        "FlipAngle": 68.0,
        "HighBit": 15,
        "ImageOrientationPatient": [
          0.99852146361479,
          -0.0247588370637,
          0.04839304379581,
          0.04150125035507,
          0.9221875559071,
          -0.3845097631388
        ],
        "ImagePositionPatient": [
          -984.19494958396,
          -871.91507572875,
          262.37910260703
        ],
        "ImageType": [
          "ORIGINAL",
          "PRIMARY",
          "M",
          "MB",
          "ND",
          "MOSAIC"
        ],
        "ImagedNucleus": "1H",
        "ImagingFrequency": 123.191345,
        "InPlanePhaseEncodingDirection": "COL",
        "MRAcquisitionType": "2D",
        "MagneticFieldStrength": 3.0,
        "Manufacturer": "SIEMENS",
        "ManufacturerModelName": "Prisma",
        "Modality": "MR",
        "NumberOfAverages": 1.0,
        "NumberOfPhaseEncodingSteps": 104,
        "PercentPhaseFieldOfView": 100.0,
        "PercentSampling": 100.0,
        "PerformedProcedureStepStartTime": "154117.736000",
        "PhotometricInterpretation": "MONOCHROME2",
        "PixelBandwidth": 2290.0,
        "PixelRepresentation": 0,
        "PixelSpacing": [
          2.0,
          2.0
        ],
        "ProtocolName": "cmrr_mbepi_s6_2mm_66sl_PA_TR1.0",
        "RepetitionTime": 1000.0,
        "Rows": 936,
        "SAR": 0.06533400942532,
        "SamplesPerPixel": 1,
        "ScanOptions": "FS",
        "ScanningSequence": "EP",
        "SequenceName": "epfid2d1_104",
        "SequenceVariant": [
          "SK",
          "SS"
        ],
        "SeriesDescription": "cmrr_mbepi_s6_2mm_66sl_PA_TR1.0",
        "SeriesNumber": 26,
        "SeriesTime": "162018.477000",
        "SliceLocation": -60.088128683745,
        "SliceThickness": 2.0,
        "SmallestImagePixelValue": 0,
        "SoftwareVersions": "syngo MR E11",
        "SpacingBetweenSlices": 2.0000000486852,
        "SpecificCharacterSet": "ISO_IR 100",
        "StudyID": "1",
        "StudyTime": "154117.674000",
        "TransmitCoilName": "Body",
        "VariableFlipAngleFlag": "N",
        "WindowCenterWidthExplanation": "Algo1",
        "dBdt": 0.0
      },
      "slices": {}
    },
    "modality": "bold",
    "run_id": 9,
    "session_id": "nyu3t01",
    "subject_id": "wlsubj043",
    "task_id": "prf",
    "time": {
      "samples": {
        "AcquisitionNumber": [
          1,
          2,
          3,
          4,
          5,
          6,
          7,
          8,
          9,
          10,
          11,
          12,
          13,
          14,
          15,
          16,
          17,
          18,
          19,
          20,
          21,
          22,
          23,
          24,
          25,
          26,
          27,
          28,
          29,
          30,
          31,
          32,
          33,
          34,
          35,
          36,
          37,
          38,
          39,
          40,
          41,
          42,
          43,
          44,
          45,
          46,
          47,
          48,
          49,
          50,
          51,
          52,
          53,
          54,
          55,
          56,
          57,
          58,
          59,
          60,
          61,
          62,
          63,
          64,
          65,
          66,
          67,
          68,
          69,
          70,
          71,
          72,
          73,
          74,
          75,
          76,
          77,
          78,
          79,
          80,
          81,
          82,
          83,
          84,
          85,
          86,
          87,
          88,
          89,
          90,
          91,
          92,
          93,
          94,
          95,
          96,
          97,
          98,
          99,
          100,
          101,
          102,
          103,
          104,
          105,
          106,
          107,
          108,
          109,
          110,
          111,
          112,
          113,
          114,
          115,
          116,
          117,
          118,
          119,
          120,
          121,
          122,
          123,
          124,
          125,
          126,
          127,
          128,
          129,
          130,
          131,
          132,
          133,
          134,
          135,
          136,
          137,
          138,
          139,
          140,
          141,
          142,
          143,
          144,
          145,
          146,
          147,
          148,
          149,
          150,
          151,
          152,
          153,
          154,
          155,
          156,
          157,
          158,
          159,
          160,
          161,
          162,
          163,
          164,
          165,
          166,
          167,
          168,
          169,
          170,
          171,
          172,
          173,
          174,
          175,
          176,
          177,
          178,
          179,
          180,
          181,
          182,
          183,
          184,
          185,
          186,
          187,
          188,
          189,
          190,
          191,
          192
        ],
        "AcquisitionTime": [
          "161913.515000",
          "161914.515000",
          "161915.515000",
          "161916.515000",
          "161917.515000",
          "161918.515000",
          "161919.515000",
          "161920.515000",
          "161921.515000",
          "161922.515000",
          "161923.515000",
          "161924.515000",
          "161925.515000",
          "161926.515000",
          "161927.515000",
          "161928.515000",
          "161929.515000",
          "161930.515000",
          "161931.515000",
          "161932.515000",
          "161933.515000",
          "161934.515000",
          "161935.515000",
          "161936.515000",
          "161937.515000",
          "161938.515000",
          "161939.515000",
          "161940.515000",
          "161941.515000",
          "161942.515000",
          "161943.515000",
          "161944.515000",
          "161945.515000",
          "161946.515000",
          "161947.515000",
          "161948.515000",
          "161949.515000",
          "161950.515000",
          "161951.515000",
          "161952.515000",
          "161953.515000",
          "161954.515000",
          "161955.515000",
          "161956.515000",
          "161957.515000",
          "161958.515000",
          "161959.515000",
          "162000.515000",
          "162001.515000",
          "162002.515000",
          "162003.515000",
          "162004.515000",
          "162005.515000",
          "162006.515000",
          "162007.515000",
          "162008.515000",
          "162009.515000",
          "162010.515000",
          "162011.515000",
          "162012.515000",
          "162013.515000",
          "162014.515000",
          "162015.515000",
          "162016.515000",
          "162017.515000",
          "162018.515000",
          "162019.515000",
          "162020.515000",
          "162021.515000",
          "162022.515000",
          "162023.515000",
          "162024.515000",
          "162025.515000",
          "162026.515000",
          "162027.515000",
          "162028.515000",
          "162029.515000",
          "162030.515000",
          "162031.515000",
          "162032.515000",
          "162033.515000",
          "162034.515000",
          "162035.515000",
          "162036.515000",
          "162037.515000",
          "162038.515000",
          "162039.515000",
          "162040.515000",
          "162041.515000",
          "162042.515000",
          "162043.515000",
          "162044.515000",
          "162045.515000",
          "162046.515000",
          "162047.515000",
          "162048.515000",
          "162049.515000",
          "162050.515000",
          "162051.515000",
          "162052.515000",
          "162053.515000",
          "162054.515000",
          "162055.515000",
          "162056.515000",
          "162057.515000",
          "162058.515000",
          "162059.515000",
          "162100.515000",
          "162101.515000",
          "162102.515000",
          "162103.515000",
          "162104.515000",
          "162105.515000",
          "162106.515000",
          "162107.515000",
          "162108.515000",
          "162109.515000",
          "162110.515000",
          "162111.515000",
          "162112.515000",
          "162113.515000",
          "162114.515000",
          "162115.515000",
          "162116.515000",
          "162117.515000",
          "162118.515000",
          "162119.515000",
          "162120.515000",
          "162121.515000",
          "162122.515000",
          "162123.515000",
          "162124.515000",
          "162125.515000",
          "162126.515000",
          "162127.515000",
          "162128.515000",
          "162129.515000",
          "162130.515000",
          "162131.515000",
          "162132.515000",
          "162133.515000",
          "162134.515000",
          "162135.515000",
          "162136.515000",
          "162137.515000",
          "162138.515000",
          "162139.515000",
          "162140.515000",
          "162141.515000",
          "162142.515000",
          "162143.515000",
          "162144.515000",
          "162145.515000",
          "162146.515000",
          "162147.515000",
          "162148.515000",
          "162149.515000",
          "162150.515000",
          "162151.515000",
          "162152.515000",
          "162153.515000",
          "162154.515000",
          "162155.515000",
          "162156.515000",
          "162157.515000",
          "162158.515000",
          "162159.515000",
          "162200.515000",
          "162201.515000",
          "162202.515000",
          "162203.515000",
          "162204.515000",
          "162205.515000",
          "162206.515000",
          "162207.515000",
          "162208.515000",
          "162209.515000",
          "162210.515000",
          "162211.515000",
          "162212.515000",
          "162213.515000",
          "162214.515000",
          "162215.515000",
          "162216.515000",
          "162217.515000",
          "162218.515000",
          "162219.515000",
          "162220.515000",
          "162221.515000",
          "162222.515000",
          "162223.515000",
          "162224.515000"
        ],
        "ContentTime": [
          "162018.480000",
          "162018.483000",
          "162018.486000",
          "162018.494000",
          "162018.497000",
          "162018.500000",
          "162018.503000",
          "162018.506000",
          "162018.509000",
          "162018.512000",
          "162018.515000",
          "162018.518000",
          "162018.525000",
          "162018.528000",
          "162018.537000",
          "162018.540000",
          "162018.543000",
          "162018.546000",
          "162018.549000",
          "162018.552000",
          "162018.555000",
          "162018.558000",
          "162038.449000",
          "162038.452000",
          "162038.455000",
          "162038.458000",
          "162038.461000",
          "162038.464000",
          "162038.467000",
          "162038.470000",
          "162038.473000",
          "162038.479000",
          "162038.482000",
          "162038.486000",
          "162038.489000",
          "162038.492000",
          "162038.494000",
          "162038.498000",
          "162038.501000",
          "162038.503000",
          "162038.506000",
          "162038.510000",
          "162038.512000",
          "162038.515000",
          "162038.518000",
          "162038.521000",
          "162038.524000",
          "162038.545000",
          "162038.548000",
          "162038.551000",
          "162058.449000",
          "162058.452000",
          "162058.455000",
          "162058.458000",
          "162058.461000",
          "162058.464000",
          "162058.467000",
          "162058.470000",
          "162058.473000",
          "162058.476000",
          "162058.479000",
          "162058.482000",
          "162058.485000",
          "162058.488000",
          "162058.491000",
          "162058.494000",
          "162058.497000",
          "162058.500000",
          "162058.503000",
          "162058.506000",
          "162058.509000",
          "162058.512000",
          "162058.515000",
          "162058.518000",
          "162058.521000",
          "162058.524000",
          "162058.527000",
          "162058.530000",
          "162118.449000",
          "162118.452000",
          "162118.455000",
          "162118.458000",
          "162118.461000",
          "162118.464000",
          "162118.467000",
          "162118.470000",
          "162118.473000",
          "162118.476000",
          "162118.479000",
          "162118.482000",
          "162118.485000",
          "162118.488000",
          "162118.491000",
          "162118.494000",
          "162118.497000",
          "162118.500000",
          "162118.503000",
          "162118.506000",
          "162118.509000",
          "162118.512000",
          "162118.515000",
          "162118.518000",
          "162118.521000",
          "162118.524000",
          "162118.527000",
          "162118.530000",
          "162138.450000",
          "162138.453000",
          "162138.456000",
          "162138.459000",
          "162138.462000",
          "162138.465000",
          "162138.468000",
          "162138.471000",
          "162138.474000",
          "162138.477000",
          "162138.480000",
          "162138.483000",
          "162138.486000",
          "162138.489000",
          "162138.492000",
          "162138.503000",
          "162138.506000",
          "162138.509000",
          "162138.512000",
          "162138.515000",
          "162138.518000",
          "162138.521000",
          "162138.524000",
          "162138.527000",
          "162138.530000",
          "162138.533000",
          "162138.536000",
          "162138.539000",
          "162158.450000",
          "162158.453000",
          "162158.456000",
          "162158.459000",
          "162158.462000",
          "162158.465000",
          "162158.468000",
          "162158.471000",
          "162158.474000",
          "162158.477000",
          "162158.481000",
          "162158.484000",
          "162158.486000",
          "162158.490000",
          "162158.493000",
          "162158.496000",
          "162158.499000",
          "162158.502000",
          "162158.505000",
          "162158.508000",
          "162158.511000",
          "162158.514000",
          "162158.517000",
          "162158.520000",
          "162158.523000",
          "162158.526000",
          "162158.529000",
          "162158.532000",
          "162158.535000",
          "162218.449000",
          "162218.452000",
          "162218.455000",
          "162218.458000",
          "162218.461000",
          "162218.464000",
          "162218.467000",
          "162218.470000",
          "162218.473000",
          "162218.477000",
          "162218.480000",
          "162218.483000",
          "162218.486000",
          "162218.489000",
          "162218.492000",
          "162218.495000",
          "162218.498000",
          "162218.501000",
          "162218.508000",
          "162218.511000",
          "162218.514000",
          "162225.747000",
          "162225.751000",
          "162225.754000",
          "162225.757000",
          "162225.760000",
          "162225.763000",
          "162225.766000",
          "162225.769000"
        ],
        "InstanceCreationTime": [
          "162018.480000",
          "162018.483000",
          "162018.486000",
          "162018.494000",
          "162018.497000",
          "162018.500000",
          "162018.503000",
          "162018.506000",
          "162018.509000",
          "162018.512000",
          "162018.515000",
          "162018.518000",
          "162018.525000",
          "162018.528000",
          "162018.537000",
          "162018.540000",
          "162018.543000",
          "162018.546000",
          "162018.549000",
          "162018.552000",
          "162018.555000",
          "162018.558000",
          "162038.449000",
          "162038.452000",
          "162038.455000",
          "162038.458000",
          "162038.461000",
          "162038.464000",
          "162038.467000",
          "162038.470000",
          "162038.473000",
          "162038.479000",
          "162038.482000",
          "162038.486000",
          "162038.489000",
          "162038.492000",
          "162038.494000",
          "162038.498000",
          "162038.501000",
          "162038.503000",
          "162038.506000",
          "162038.510000",
          "162038.512000",
          "162038.515000",
          "162038.518000",
          "162038.521000",
          "162038.524000",
          "162038.545000",
          "162038.548000",
          "162038.551000",
          "162058.449000",
          "162058.452000",
          "162058.455000",
          "162058.458000",
          "162058.461000",
          "162058.464000",
          "162058.467000",
          "162058.470000",
          "162058.473000",
          "162058.476000",
          "162058.479000",
          "162058.482000",
          "162058.485000",
          "162058.488000",
          "162058.491000",
          "162058.494000",
          "162058.497000",
          "162058.500000",
          "162058.503000",
          "162058.506000",
          "162058.509000",
          "162058.512000",
          "162058.515000",
          "162058.518000",
          "162058.521000",
          "162058.524000",
          "162058.527000",
          "162058.530000",
          "162118.449000",
          "162118.452000",
          "162118.455000",
          "162118.458000",
          "162118.461000",
          "162118.464000",
          "162118.467000",
          "162118.470000",
          "162118.473000",
          "162118.476000",
          "162118.479000",
          "162118.482000",
          "162118.485000",
          "162118.488000",
          "162118.491000",
          "162118.494000",
          "162118.497000",
          "162118.500000",
          "162118.503000",
          "162118.506000",
          "162118.509000",
          "162118.512000",
          "162118.515000",
          "162118.518000",
          "162118.521000",
          "162118.524000",
          "162118.527000",
          "162118.530000",
          "162138.450000",
          "162138.453000",
          "162138.456000",
          "162138.459000",
          "162138.462000",
          "162138.465000",
          "162138.468000",
          "162138.471000",
          "162138.474000",
          "162138.477000",
          "162138.480000",
          "162138.483000",
          "162138.486000",
          "162138.489000",
          "162138.492000",
          "162138.503000",
          "162138.506000",
          "162138.509000",
          "162138.512000",
          "162138.515000",
          "162138.518000",
          "162138.521000",
          "162138.524000",
          "162138.527000",
          "162138.530000",
          "162138.533000",
          "162138.536000",
          "162138.539000",
          "162158.450000",
          "162158.453000",
          "162158.456000",
          "162158.459000",
          "162158.462000",
          "162158.465000",
          "162158.468000",
          "162158.471000",
          "162158.474000",
          "162158.477000",
          "162158.481000",
          "162158.484000",
          "162158.486000",
          "162158.490000",
          "162158.493000",
          "162158.496000",
          "162158.499000",
          "162158.502000",
          "162158.505000",
          "162158.508000",
          "162158.511000",
          "162158.514000",
          "162158.517000",
          "162158.520000",
          "162158.523000",
          "162158.526000",
          "162158.529000",
          "162158.532000",
          "162158.535000",
          "162218.449000",
          "162218.452000",
          "162218.455000",
          "162218.458000",
          "162218.461000",
          "162218.464000",
          "162218.467000",
          "162218.470000",
          "162218.473000",
          "162218.477000",
          "162218.480000",
          "162218.483000",
          "162218.486000",
          "162218.489000",
          "162218.492000",
          "162218.495000",
          "162218.498000",
          "162218.501000",
          "162218.508000",
          "162218.511000",
          "162218.514000",
          "162225.747000",
          "162225.751000",
          "162225.754000",
          "162225.757000",
          "162225.760000",
          "162225.763000",
          "162225.766000",
          "162225.769000"
        ],
        "InstanceNumber": [
          1,
          2,
          3,
          4,
          5,
          6,
          7,
          8,
          9,
          10,
          11,
          12,
          13,
          14,
          15,
          16,
          17,
          18,
          19,
          20,
          21,
          22,
          23,
          24,
          25,
          26,
          27,
          28,
          29,
          30,
          31,
          32,
          33,
          34,
          35,
          36,
          37,
          38,
          39,
          40,
          41,
          42,
          43,
          44,
          45,
          46,
          47,
          48,
          49,
          50,
          51,
          52,
          53,
          54,
          55,
          56,
          57,
          58,
          59,
          60,
          61,
          62,
          63,
          64,
          65,
          66,
          67,
          68,
          69,
          70,
          71,
          72,
          73,
          74,
          75,
          76,
          77,
          78,
          79,
          80,
          81,
          82,
          83,
          84,
          85,
          86,
          87,
          88,
          89,
          90,
          91,
          92,
          93,
          94,
          95,
          96,
          97,
          98,
          99,
          100,
          101,
          102,
          103,
          104,
          105,
          106,
          107,
          108,
          109,
          110,
          111,
          112,
          113,
          114,
          115,
          116,
          117,
          118,
          119,
          120,
          121,
          122,
          123,
          124,
          125,
          126,
          127,
          128,
          129,
          130,
          131,
          132,
          133,
          134,
          135,
          136,
          137,
          138,
          139,
          140,
          141,
          142,
          143,
          144,
          145,
          146,
          147,
          148,
          149,
          150,
          151,
          152,
          153,
          154,
          155,
          156,
          157,
          158,
          159,
          160,
          161,
          162,
          163,
          164,
          165,
          166,
          167,
          168,
          169,
          170,
          171,
          172,
          173,
          174,
          175,
          176,
          177,
          178,
          179,
          180,
          181,
          182,
          183,
          184,
          185,
          186,
          187,
          188,
          189,
          190,
          191,
          192
        ],
        "LargestImagePixelValue": [
          32327,
          31508,
          30763,
          30602,
          31183,
          30514,
          30904,
          31090,
          30832,
          30338,
          30736,
          31275,
          30652,
          30131,
          31004,
          31244,
          30446,
          30182,
          30868,
          31182,
          30741,
          29808,
          30819,
          30629,
          31132,
          30393,
          30444,
          30604,
          30367,
          30390,
          30895,
          30852,
          30573,
          31327,
          31346,
          31450,
          31548,
          30640,
          30759,
          30730,
          30607,
          30924,
          31616,
          31308,
          30746,
          30199,
          30584,
          30456,
          31059,
          30519,
          30979,
          31016,
          31268,
          31461,
          30561,
          31215,
          31180,
          30919,
          30934,
          31119,
          30917,
          30644,
          30392,
          30530,
          31138,
          30834,
          30994,
          32367,
          30873,
          30503,
          31017,
          30755,
          31029,
          31409,
          32035,
          31565,
          31969,
          31553,
          31273,
          31489,
          31256,
          31317,
          31903,
          31666,
          31518,
