{
  "aor": 0.0005286458333333333,
  "aqi": 0.0051784985416666665,
  "bids_meta": {
    "AcquisitionMatrixPE": 104,
    "AcquisitionNumber": 1,
    "AcquisitionTime": "10:44:30.497500",
    "BandwidthPerPixelPhaseEncode": 16.578,
    "BaseResolution": 104,
    "BodyPartExamined": "BRAIN",
    "CogAtlasID": "TODO",
    "ConsistencyInfo": "N4_VE11C_LATEST_20160120",
    "ConversionSoftware": "dcm2niix",
    "ConversionSoftwareVersion": "v1.0.20190902",
    "DerivedVendorReportedEchoSpacing": 0.000580009,
    "DeviceSerialNumber": "166018",
    "DwellTime": 2.1e-06,
    "EchoTime": 0.037,
    "EchoTrainLength": 104,
    "EffectiveEchoSpacing": 0.000580009,
    "FlipAngle": 68,
    "ImageComments": "Unaliased_MB6_PE3_LB",
    "ImageOrientationPatientDICOM": [
      0.993289,
      0.109598,
      0.036937,
      -0.0956429,
      0.957967,
      -0.270464
    ],
    "ImageType": [
      "ORIGINAL",
      "PRIMARY",
      "M",
      "MB",
      "ND",
      "MOSAIC"
    ],
    "ImagingFrequency": 123.191,
    "InPlanePhaseEncodingDirectionDICOM": "COL",
    "InstitutionAddress": "Washington_Place_6_NYC_NYC_US_10003",
    "InstitutionName": "NYU_-_CBI",
    "InstitutionalDepartmentName": "Department",
    "MRAcquisitionType": "2D",
    "MagneticFieldStrength": 3,
    "Manufacturer": "Siemens",
    "ManufacturersModelName": "Prisma",
    "Modality": "MR",
    "MultibandAccelerationFactor": 6,
    "NumberOfVolumes": 192,
    "PartialFourier": 1,
    "PatientPosition": "HFS",
    "PercentPhaseFOV": 100,
    "PhaseEncodingDirection": "j",
    "PhaseEncodingSteps": 104,
    "PhaseResolution": 1,
    "PixelBandwidth": 2290,
    "ProcedureStepDescription": "Investigators_Winawer",
    "ProtocolName": "cmrr_mbepi_s6_2mm_66sl_PA_task-prf",
    "PulseSequenceDetails": "%CustomerSeq%_cmrr_mbep2d_bold",
    "ReceiveCoilActiveElements": "HC1-7",
    "ReceiveCoilName": "HeadNeck_64",
    "ReconMatrixPE": 104,
    "RepetitionTime": 1,
    "SAR": 0.062376,
    "ScanOptions": "FS",
    "ScanningSequence": "EP",
    "SequenceName": "epfid2d1_104",
    "SequenceVariant": "SK_SS",
    "SeriesDescription": "cmrr_mbepi_s6_2mm_66sl_PA_task-prf",
    "SeriesNumber": 18,
    "ShimSetting": [
      272,
      -12573,
      -8445,
      481,
      -12,
      -101,
      -67,
      -2
    ],
    "SliceThickness": 2,
    "SliceTiming": [
      0,
      0.5325,
      0.0875,
      0.6225,
      0.1775,
      0.7125,
      0.265,
      0.8,
      0.355,
      0.89,
      0.445,
      0,
      0.5325,
      0.0875,
      0.6225,
      0.1775,
      0.7125,
      0.265,
      0.8,
      0.355,
      0.89,
      0.445,
      0,
      0.5325,
      0.0875,
      0.6225,
      0.1775,
      0.7125,
      0.265,
      0.8,
      0.355,
      0.89,
      0.445,
      0,
      0.5325,
      0.0875,
      0.6225,
      0.1775,
      0.7125,
      0.265,
      0.8,
      0.355,
      0.89,
      0.445,
      0,
      0.5325,
      0.0875,
      0.6225,
      0.1775,
      0.7125,
      0.265,
      0.8,
      0.355,
      0.89,
      0.445,
      0,
      0.5325,
      0.0875,
      0.6225,
      0.1775,
      0.7125,
      0.265,
      0.8,
      0.355,
      0.89,
      0.445
    ],
    "SoftwareVersions": "syngo_MR_E11",
    "SpacingBetweenSlices": 2,
    "StationName": "AWP166018",
    "TaskName": "prf",
    "TotalReadoutTime": 0.0597409,
    "TxRefAmp": 207.746,
    "WipMemBlock": "a6a7f098-c453-4aa7-b3b4-6b6e67c4d097||Sequence: R016 ve11c/master r/8780670; Nov 27 2017 15:05:12 by eja",
    "acq_id": "PA",
    "dataset": "unknown",
    "dcmmeta_affine": [
      [
        -1.9865789413452148,
        -0.19128571450710297,
        0.13005344569683075,
        119.66618347167969
      ],
      [
        -0.21919570863246918,
        1.9159349203109741,
        -0.5302327871322632,
        -47.2097282409668
      ],
      [
        0.07387398928403854,
        0.5409281849861145,
        1.9240424633026123,
        -72.72578430175781
      ],
      [
        0.0,
        0.0,
        0.0,
        1.0
      ]
    ],
    "dcmmeta_reorient_transform": [
      [
        0.0,
        -1.0,
        0.0,
        103.0
      ],
      [
        1.0,
        0.0,
        0.0,
        0.0
      ],
      [
        0.0,
        0.0,
        1.0,
        0.0
      ],
      [
        0.0,
        0.0,
        0.0,
        1.0
      ]
    ],
    "dcmmeta_shape": [
      104,
      104,
      66,
      192
    ],
    "dcmmeta_slice_dim": 2,
    "dcmmeta_version": 0.6,
    "global": {
      "const": {
        "AccessionNumber": "JUK00BTQ",
        "AcquisitionMatrix": [
          104,
          0,
          0,
          104
        ],
        "AngioFlag": "N",
        "BitsAllocated": 16,
        "BitsStored": 16,
        "BodyPartExamined": "BRAIN",
        "Columns": 936,
        "EchoNumbers": 1,
        "EchoTime": 37.0,
        "EchoTrainLength": 104,
        "FlipAngle": 68.0,
        "HighBit": 15,
        "ImageOrientationPatient": [
          0.99328946855882,
          0.10959785617072,
          0.03693699463853,
          -0.0956428608861,
          0.957967438371,
          -0.2704641014672
        ],
        "ImagePositionPatient": [
          -846.80573146119,
          -1038.3458901661,
          177.28437110658
        ],
        "ImageType": [
          "ORIGINAL",
          "PRIMARY",
          "M",
          "MB",
          "ND",
          "MOSAIC"
        ],
        "ImagedNucleus": "1H",
        "ImagingFrequency": 123.191019,
        "InPlanePhaseEncodingDirection": "COL",
        "MRAcquisitionType": "2D",
        "MagneticFieldStrength": 3.0,
        "Manufacturer": "SIEMENS",
        "ManufacturerModelName": "Prisma",
        "Modality": "MR",
        "NumberOfAverages": 1.0,
        "NumberOfPhaseEncodingSteps": 104,
        "PercentPhaseFieldOfView": 100.0,
        "PercentSampling": 100.0,
        "PerformedProcedureStepStartTime": "101139.639000",
        "PhotometricInterpretation": "MONOCHROME2",
        "PixelBandwidth": 2290.0,
        "PixelRepresentation": 0,
        "PixelSpacing": [
          2.0,
          2.0
        ],
        "ProtocolName": "cmrr_mbepi_s6_2mm_66sl_PA_task-prf",
        "RepetitionTime": 1000.0,
        "Rows": 936,
        "SAR": 0.06237597445712,
        "SamplesPerPixel": 1,
        "ScanOptions": "FS",
        "ScanningSequence": "EP",
        "SequenceName": "epfid2d1_104",
        "SequenceVariant": [
          "SK",
          "SS"
        ],
        "SeriesDescription": "cmrr_mbepi_s6_2mm_66sl_PA_task-prf",
        "SeriesNumber": 18,
        "SeriesTime": "104530.560000",
        "SliceLocation": -49.666178043029,
        "SliceThickness": 2.0,
        "SmallestImagePixelValue": 0,
        "SoftwareVersions": "syngo MR E11",
        "SpacingBetweenSlices": 2.0000000699906,
        "SpecificCharacterSet": "ISO_IR 100",
        "StudyID": "1",
        "StudyTime": "101139.529000",
        "TransmitCoilName": "Body",
        "VariableFlipAngleFlag": "N",
        "WindowCenterWidthExplanation": "Algo1",
        "dBdt": 0.0
      },
      "slices": {}
    },
    "modality": "bold",
    "run_id": 6,
    "session_id": "nyu3t01",
    "subject_id": "wlsubj083",
    "task_id": "prf",
    "time": {
      "samples": {
        "AcquisitionNumber": [
          1,
          2,
          3,
          4,
          5,
          6,
          7,
          8,
          9,
          10,
          11,
          12,
          13,
          14,
          15,
          16,
          17,
          18,
          19,
          20,
          21,
          22,
          23,
          24,
          25,
          26,
          27,
          28,
          29,
          30,
          31,
          32,
          33,
          34,
          35,
          36,
          37,
          38,
          39,
          40,
          41,
          42,
          43,
          44,
          45,
          46,
          47,
          48,
          49,
          50,
          51,
          52,
          53,
          54,
          55,
          56,
          57,
          58,
          59,
          60,
          61,
          62,
          63,
          64,
          65,
          66,
          67,
          68,
          69,
          70,
          71,
          72,
          73,
          74,
          75,
          76,
          77,
          78,
          79,
          80,
          81,
          82,
          83,
          84,
          85,
          86,
          87,
          88,
          89,
          90,
          91,
          92,
          93,
          94,
          95,
          96,
          97,
          98,
          99,
          100,
          101,
          102,
          103,
          104,
          105,
          106,
          107,
          108,
          109,
          110,
          111,
          112,
          113,
          114,
          115,
          116,
          117,
          118,
          119,
          120,
          121,
          122,
          123,
          124,
          125,
          126,
          127,
          128,
          129,
          130,
          131,
          132,
          133,
          134,
          135,
          136,
          137,
          138,
          139,
          140,
          141,
          142,
          143,
          144,
          145,
          146,
          147,
          148,
          149,
          150,
          151,
          152,
          153,
          154,
          155,
          156,
          157,
          158,
          159,
          160,
          161,
          162,
          163,
          164,
          165,
          166,
          167,
          168,
          169,
          170,
          171,
          172,
          173,
          174,
          175,
          176,
          177,
          178,
          179,
          180,
          181,
          182,
          183,
          184,
          185,
          186,
          187,
          188,
          189,
          190,
          191,
          192
        ],
        "AcquisitionTime": [
          "104430.497500",
          "104431.497500",
          "104432.497500",
          "104433.497500",
          "104434.497500",
          "104435.497500",
          "104436.497500",
          "104437.497500",
          "104438.497500",
          "104439.497500",
          "104440.497500",
          "104441.497500",
          "104442.497500",
          "104443.497500",
          "104444.497500",
          "104445.497500",
          "104446.497500",
          "104447.497500",
          "104448.497500",
          "104449.497500",
          "104450.497500",
          "104451.497500",
          "104452.497500",
          "104453.497500",
          "104454.497500",
          "104455.497500",
          "104456.497500",
          "104457.497500",
          "104458.497500",
          "104459.497500",
          "104500.497500",
          "104501.497500",
          "104502.497500",
          "104503.497500",
          "104504.497500",
          "104505.497500",
          "104506.497500",
          "104507.497500",
          "104508.497500",
          "104509.497500",
          "104510.497500",
          "104511.497500",
          "104512.497500",
          "104513.497500",
          "104514.497500",
          "104515.497500",
          "104516.497500",
          "104517.497500",
          "104518.497500",
          "104519.497500",
          "104520.497500",
          "104521.497500",
          "104522.497500",
          "104523.497500",
          "104524.497500",
          "104525.497500",
          "104526.497500",
          "104527.497500",
          "104528.497500",
          "104529.497500",
          "104530.497500",
          "104531.497500",
          "104532.497500",
          "104533.497500",
          "104534.497500",
          "104535.497500",
          "104536.497500",
          "104537.497500",
          "104538.497500",
          "104539.497500",
          "104540.497500",
          "104541.497500",
          "104542.497500",
          "104543.497500",
          "104544.497500",
          "104545.497500",
          "104546.497500",
          "104547.497500",
          "104548.497500",
          "104549.497500",
          "104550.497500",
          "104551.497500",
          "104552.497500",
          "104553.497500",
          "104554.497500",
          "104555.497500",
          "104556.497500",
          "104557.497500",
          "104558.497500",
          "104559.497500",
          "104600.497500",
          "104601.497500",
          "104602.497500",
          "104603.497500",
          "104604.497500",
          "104605.497500",
          "104606.497500",
          "104607.497500",
          "104608.497500",
          "104609.497500",
          "104610.497500",
          "104611.497500",
          "104612.497500",
          "104613.497500",
          "104614.497500",
          "104615.497500",
          "104616.497500",
          "104617.497500",
          "104618.497500",
          "104619.497500",
          "104620.497500",
          "104621.497500",
          "104622.497500",
          "104623.497500",
          "104624.497500",
          "104625.497500",
          "104626.497500",
          "104627.497500",
          "104628.497500",
          "104629.497500",
          "104630.497500",
          "104631.497500",
          "104632.497500",
          "104633.497500",
          "104634.497500",
          "104635.497500",
          "104636.497500",
          "104637.497500",
          "104638.497500",
          "104639.497500",
          "104640.497500",
          "104641.497500",
          "104642.497500",
          "104643.497500",
          "104644.497500",
          "104645.497500",
          "104646.497500",
          "104647.497500",
          "104648.497500",
          "104649.497500",
          "104650.497500",
          "104651.497500",
          "104652.497500",
          "104653.497500",
          "104654.497500",
          "104655.497500",
          "104656.497500",
          "104657.497500",
          "104658.497500",
          "104659.497500",
          "104700.497500",
          "104701.497500",
          "104702.497500",
          "104703.497500",
          "104704.497500",
          "104705.497500",
          "104706.497500",
          "104707.497500",
          "104708.497500",
          "104709.497500",
          "104710.497500",
          "104711.497500",
          "104712.497500",
          "104713.497500",
          "104714.497500",
          "104715.497500",
          "104716.497500",
          "104717.497500",
          "104718.497500",
          "104719.497500",
          "104720.497500",
          "104721.497500",
          "104722.497500",
          "104723.497500",
          "104724.497500",
          "104725.497500",
          "104726.497500",
          "104727.497500",
          "104728.497500",
          "104729.497500",
          "104730.497500",
          "104731.497500",
          "104732.497500",
          "104733.497500",
          "104734.497500",
          "104735.497500",
          "104736.497500",
          "104737.497500",
          "104738.497500",
          "104739.497500",
          "104740.497500",
          "104741.497500"
        ],
        "ContentTime": [
          "104530.563000",
          "104530.567000",
          "104530.570000",
          "104530.573000",
          "104530.576000",
          "104530.579000",
          "104535.535000",
          "104535.538000",
          "104535.541000",
          "104535.544000",
          "104535.547000",
          "104535.550000",
          "104535.553000",
          "104540.535000",
          "104540.538000",
          "104540.541000",
          "104540.544000",
          "104540.547000",
          "104540.550000",
          "104540.553000",
          "104540.556000",
          "104545.535000",
          "104545.538000",
          "104545.541000",
          "104545.544000",
          "104545.547000",
          "104545.550000",
          "104545.553000",
          "104550.534000",
          "104550.537000",
          "104550.544000",
          "104550.547000",
          "104550.550000",
          "104550.553000",
          "104550.556000",
          "104555.535000",
          "104555.538000",
          "104555.541000",
          "104555.544000",
          "104555.547000",
          "104555.550000",
          "104555.553000",
          "104600.535000",
          "104600.538000",
          "104600.541000",
          "104600.544000",
          "104600.547000",
          "104600.550000",
          "104600.553000",
          "104605.534000",
          "104605.537000",
          "104605.540000",
          "104605.543000",
          "104605.546000",
          "104605.549000",
          "104605.552000",
          "104610.535000",
          "104610.538000",
          "104610.541000",
          "104610.544000",
          "104610.547000",
          "104610.550000",
          "104610.553000",
          "104615.535000",
          "104615.538000",
          "104615.541000",
          "104615.544000",
          "104615.547000",
          "104615.550000",
          "104615.553000",
          "104620.535000",
          "104620.538000",
          "104620.541000",
          "104620.544000",
          "104620.547000",
          "104620.550000",
          "104620.553000",
          "104625.534000",
          "104625.537000",
          "104625.540000",
          "104625.543000",
          "104625.546000",
          "104625.549000",
          "104625.552000",
          "104630.535000",
          "104630.538000",
          "104630.541000",
          "104630.544000",
          "104630.547000",
          "104630.550000",
          "104630.553000",
          "104635.535000",
          "104635.538000",
          "104635.541000",
          "104635.544000",
          "104635.547000",
          "104635.550000",
          "104635.553000",
          "104640.534000",
          "104640.537000",
          "104640.540000",
          "104640.543000",
          "104640.546000",
          "104640.549000",
          "104640.552000",
          "104645.535000",
          "104645.538000",
          "104645.541000",
          "104645.544000",
          "104645.547000",
          "104645.550000",
          "104645.553000",
          "104650.535000",
          "104650.538000",
          "104650.541000",
          "104650.544000",
          "104650.547000",
          "104650.550000",
          "104650.553000",
          "104655.535000",
          "104655.538000",
          "104655.541000",
          "104655.544000",
          "104655.547000",
          "104655.550000",
          "104655.553000",
          "104700.534000",
          "104700.537000",
          "104700.540000",
          "104700.543000",
          "104700.546000",
          "104700.549000",
          "104700.552000",
          "104705.535000",
          "104705.538000",
          "104705.541000",
          "104705.544000",
          "104705.547000",
          "104705.550000",
          "104705.553000",
          "104710.535000",
          "104710.538000",
          "104710.541000",
          "104710.544000",
          "104710.547000",
          "104710.550000",
          "104710.553000",
          "104710.566000",
          "104715.534000",
          "104715.545000",
          "104715.548000",
          "104715.551000",
          "104715.554000",
          "104715.557000",
          "104715.560000",
          "104720.535000",
          "104720.538000",
          "104720.541000",
          "104720.544000",
          "104720.547000",
          "104720.550000",
          "104720.553000",
          "104725.535000",
          "104725.538000",
          "104725.541000",
          "104725.544000",
          "104725.547000",
          "104725.557000",
          "104725.560000",
          "104730.535000",
          "104730.538000",
          "104730.541000",
          "104730.544000",
          "104730.547000",
          "104730.550000",
          "104730.553000",
          "104735.534000",
          "104735.537000",
          "104735.540000",
          "104735.543000",
          "104735.546000",
          "104735.549000",
          "104735.552000",
          "104740.535000",
          "104740.538000",
          "104740.541000",
          "104740.544000",
          "104740.547000",
          "104740.550000",
          "104742.900000",
          "104742.903000",
          "104742.907000"
        ],
        "InstanceCreationTime": [
          "104530.563000",
          "104530.567000",
          "104530.570000",
          "104530.573000",
          "104530.576000",
          "104530.579000",
          "104535.535000",
          "104535.538000",
          "104535.541000",
          "104535.544000",
          "104535.547000",
          "104535.550000",
          "104535.553000",
          "104540.535000",
          "104540.538000",
          "104540.541000",
          "104540.544000",
          "104540.547000",
          "104540.550000",
          "104540.553000",
          "104540.556000",
          "104545.535000",
          "104545.538000",
          "104545.541000",
          "104545.544000",
          "104545.547000",
          "104545.550000",
          "104545.553000",
          "104550.534000",
          "104550.537000",
          "104550.544000",
          "104550.547000",
          "104550.550000",
          "104550.553000",
          "104550.556000",
          "104555.535000",
          "104555.538000",
          "104555.541000",
          "104555.544000",
          "104555.547000",
          "104555.550000",
          "104555.553000",
          "104600.535000",
          "104600.538000",
          "104600.541000",
          "104600.544000",
          "104600.547000",
          "104600.550000",
          "104600.553000",
          "104605.534000",
          "104605.537000",
          "104605.540000",
          "104605.543000",
          "104605.546000",
          "104605.549000",
          "104605.552000",
          "104610.535000",
          "104610.538000",
          "104610.541000",
          "104610.544000",
          "104610.547000",
          "104610.550000",
          "104610.553000",
          "104615.535000",
          "104615.538000",
          "104615.541000",
          "104615.544000",
          "104615.547000",
          "104615.550000",
          "104615.553000",
          "104620.535000",
          "104620.538000",
          "104620.541000",
          "104620.544000",
          "104620.547000",
          "104620.550000",
          "104620.553000",
          "104625.534000",
          "104625.537000",
          "104625.540000",
          "104625.543000",
          "104625.546000",
          "104625.549000",
          "104625.552000",
          "104630.535000",
          "104630.538000",
          "104630.541000",
          "104630.544000",
          "104630.547000",
          "104630.550000",
          "104630.553000",
          "104635.535000",
          "104635.538000",
          "104635.541000",
          "104635.544000",
          "104635.547000",
          "104635.550000",
          "104635.553000",
          "104640.534000",
          "104640.537000",
          "104640.540000",
          "104640.543000",
          "104640.546000",
          "104640.549000",
          "104640.552000",
          "104645.535000",
          "104645.538000",
          "104645.541000",
          "104645.544000",
          "104645.547000",
          "104645.550000",
          "104645.553000",
          "104650.535000",
          "104650.538000",
          "104650.541000",
          "104650.544000",
          "104650.547000",
          "104650.550000",
          "104650.553000",
          "104655.535000",
          "104655.538000",
          "104655.541000",
          "104655.544000",
          "104655.547000",
          "104655.550000",
          "104655.553000",
          "104700.534000",
          "104700.537000",
          "104700.540000",
          "104700.543000",
          "104700.546000",
          "104700.549000",
          "104700.552000",
          "104705.535000",
          "104705.538000",
          "104705.541000",
          "104705.544000",
          "104705.547000",
          "104705.550000",
          "104705.553000",
          "104710.535000",
          "104710.538000",
          "104710.541000",
          "104710.544000",
          "104710.547000",
          "104710.550000",
          "104710.553000",
          "104710.566000",
          "104715.534000",
          "104715.545000",
          "104715.548000",
          "104715.551000",
          "104715.554000",
          "104715.557000",
          "104715.560000",
          "104720.535000",
          "104720.538000",
          "104720.541000",
          "104720.544000",
          "104720.547000",
          "104720.550000",
          "104720.553000",
          "104725.535000",
          "104725.538000",
          "104725.541000",
          "104725.544000",
          "104725.547000",
          "104725.557000",
          "104725.560000",
          "104730.535000",
          "104730.538000",
          "104730.541000",
          "104730.544000",
          "104730.547000",
          "104730.550000",
          "104730.553000",
          "104735.534000",
          "104735.537000",
          "104735.540000",
          "104735.543000",
          "104735.546000",
          "104735.549000",
          "104735.552000",
          "104740.535000",
          "104740.538000",
          "104740.541000",
          "104740.544000",
          "104740.547000",
          "104740.550000",
          "104742.900000",
          "104742.903000",
          "104742.907000"
        ],
        "InstanceNumber": [
          1,
          2,
          3,
          4,
          5,
          6,
          7,
          8,
          9,
          10,
          11,
          12,
          13,
          14,
          15,
          16,
          17,
          18,
          19,
          20,
          21,
          22,
          23,
          24,
          25,
          26,
          27,
          28,
          29,
          30,
          31,
          32,
          33,
          34,
          35,
          36,
          37,
          38,
          39,
          40,
          41,
          42,
          43,
          44,
          45,
          46,
          47,
          48,
          49,
          50,
          51,
          52,
          53,
          54,
          55,
          56,
          57,
          58,
          59,
          60,
          61,
          62,
          63,
          64,
          65,
          66,
          67,
          68,
          69,
          70,
          71,
          72,
          73,
          74,
          75,
          76,
          77,
          78,
          79,
          80,
          81,
          82,
          83,
          84,
          85,
          86,
          87,
          88,
          89,
          90,
          91,
          92,
          93,
          94,
          95,
          96,
          97,
          98,
          99,
          100,
          101,
          102,
          103,
          104,
          105,
          106,
          107,
          108,
          109,
          110,
          111,
          112,
          113,
          114,
          115,
          116,
          117,
          118,
          119,
          120,
          121,
          122,
          123,
          124,
          125,
          126,
          127,
          128,
          129,
          130,
          131,
          132,
          133,
          134,
          135,
          136,
          137,
          138,
          139,
          140,
          141,
          142,
          143,
          144,
          145,
          146,
          147,
          148,
          149,
          150,
          151,
          152,
          153,
          154,
          155,
          156,
          157,
          158,
          159,
          160,
          161,
          162,
          163,
          164,
          165,
          166,
          167,
          168,
          169,
          170,
          171,
          172,
          173,
          174,
          175,
          176,
          177,
          178,
          179,
          180,
          181,
          182,
          183,
          184,
          185,
          186,
          187,
          188,
          189,
          190,
          191,
          192
        ],
        "LargestImagePixelValue": [
          42866,
          41436,
          41225,
          40470,
          40134,
          40181,
          39884,
          39035,
          38970,
          38668,
          39359,
          38981,
          38988,
          38912,
          38684,
          38579,
          39093,
          39336,
          39209,
          39485,
          40061,
          40031,
          40306,
          39723,
          39734,
          39403,
          40403,
          40368,
          39590,
          39686,
          40034,
          39514,
          39472,
          39125,
          39242,
          38833,
          39095,
          39020,
          39143,
          39168,
          38463,
          38979,
          38771,
          38483,
          38114,
          38646,
          38285,
          38664,
          39165,
          38868,
          38631,
          39099,
          38921,
          38823,
          39702,
          39664,
          39028,
          38657,
          38533,
          38655,
          38735,
          39413,
          39266,
          39199,
          39371,
          39507,
          39263,
          39638,
          39858,
          39428,
          39377,
          39602,
          39395,
          39705,
          39475,
          39218,
          39100,
          39267,
          39535,
          39584,
          39578,
          39817,
          39694,
