{
  "aor": 0.0007317708333333334,
  "aqi": 0.005855140989583334,
  "bids_meta": {
    "AcquisitionMatrixPE": 104,
    "AcquisitionNumber": 1,
    "AcquisitionTime": "09:41:30.442500",
    "BandwidthPerPixelPhaseEncode": 16.578,
    "BaseResolution": 104,
    "BodyPartExamined": "BRAIN",
    "CogAtlasID": "TODO",
    "ConsistencyInfo": "N4_VE11C_LATEST_20160120",
    "ConversionSoftware": "dcm2niix",
    "ConversionSoftwareVersion": "v1.0.20190902",
    "DerivedVendorReportedEchoSpacing": 0.000580009,
    "DeviceSerialNumber": "166018",
    "DwellTime": 2.1e-06,
    "EchoTime": 0.037,
    "EchoTrainLength": 104,
    "EffectiveEchoSpacing": 0.000580009,
    "FlipAngle": 68,
    "ImageComments": "Unaliased_MB6_PE3_LB",
    "ImageOrientationPatientDICOM": [
      0.997174,
      0.0683814,
      -0.0311172,
      -0.0727029,
      0.982713,
      -0.170265
    ],
    "ImageType": [
      "ORIGINAL",
      "PRIMARY",
      "M",
      "MB",
      "ND",
      "MOSAIC"
    ],
    "ImagingFrequency": 123.191,
    "InPlanePhaseEncodingDirectionDICOM": "COL",
    "InstitutionAddress": "Washington_Place_6_NYC_NYC_US_10003",
    "InstitutionName": "NYU_-_CBI",
    "InstitutionalDepartmentName": "Department",
    "MRAcquisitionType": "2D",
    "MagneticFieldStrength": 3,
    "Manufacturer": "Siemens",
    "ManufacturersModelName": "Prisma",
    "Modality": "MR",
    "MultibandAccelerationFactor": 6,
    "NumberOfVolumes": 192,
    "PartialFourier": 1,
    "PatientPosition": "HFS",
    "PercentPhaseFOV": 100,
    "PhaseEncodingDirection": "j",
    "PhaseEncodingSteps": 104,
    "PhaseResolution": 1,
    "PixelBandwidth": 2290,
    "ProcedureStepDescription": "Investigators_Winawer",
    "ProtocolName": "cmrr_mbepi_s6_2mm_66sl_PA_task-prf",
    "PulseSequenceDetails": "%CustomerSeq%_cmrr_mbep2d_bold",
    "ReceiveCoilActiveElements": "HC1-7",
    "ReceiveCoilName": "HeadNeck_64",
    "ReconMatrixPE": 104,
    "RepetitionTime": 1,
    "SAR": 0.0743118,
    "ScanOptions": "FS",
    "ScanningSequence": "EP",
    "SequenceName": "epfid2d1_104",
    "SequenceVariant": "SK_SS",
    "SeriesDescription": "cmrr_mbepi_s6_2mm_66sl_PA_task-prf",
    "SeriesNumber": 16,
    "ShimSetting": [
      239,
      -12590,
      -8441,
      448,
      -86,
      -143,
      -23,
      47
    ],
    "SliceThickness": 2,
    "SliceTiming": [
      0,
      0.535,
      0.0875,
      0.6225,
      0.1775,
      0.7125,
      0.2675,
      0.8,
      0.355,
      0.89,
      0.445,
      0,
      0.535,
      0.0875,
      0.6225,
      0.1775,
      0.7125,
      0.2675,
      0.8,
      0.355,
      0.89,
      0.445,
      0,
      0.535,
      0.0875,
      0.6225,
      0.1775,
      0.7125,
      0.2675,
      0.8,
      0.355,
      0.89,
      0.445,
      0,
      0.535,
      0.0875,
      0.6225,
      0.1775,
      0.7125,
      0.2675,
      0.8,
      0.355,
      0.89,
      0.445,
      0,
      0.535,
      0.0875,
      0.6225,
      0.1775,
      0.7125,
      0.2675,
      0.8,
      0.355,
      0.89,
      0.445,
      0,
      0.535,
      0.0875,
      0.6225,
      0.1775,
      0.7125,
      0.2675,
      0.8,
      0.355,
      0.89,
      0.445
    ],
    "SoftwareVersions": "syngo_MR_E11",
    "SpacingBetweenSlices": 2,
    "StationName": "AWP166018",
    "TaskName": "prf",
    "TotalReadoutTime": 0.0597409,
    "TxRefAmp": 227.081,
    "WipMemBlock": "8ffcdf4d-a168-47a8-a5f6-1ca301177d36||Sequence: R016 ve11c/master r/8780670; Nov 27 2017 15:05:12 by eja",
    "acq_id": "PA",
    "dataset": "unknown",
    "dcmmeta_affine": [
      [
        -1.9943476915359497,
        -0.1454058289527893,
        -0.037872642278671265,
        115.68653869628906
      ],
      [
        -0.1367628127336502,
        1.9654252529144287,
        -0.3440922498703003,
        -69.1511001586914
      ],
      [
        -0.06223443150520325,
        0.34053000807762146,
        1.9698138236999512,
        -57.85879135131836
      ],
      [
        0.0,
        0.0,
        0.0,
        1.0
      ]
    ],
    "dcmmeta_reorient_transform": [
      [
        0.0,
        -1.0,
        0.0,
        103.0
      ],
      [
        1.0,
        0.0,
        0.0,
        0.0
      ],
      [
        0.0,
        0.0,
        1.0,
        0.0
      ],
      [
        0.0,
        0.0,
        0.0,
        1.0
      ]
    ],
    "dcmmeta_shape": [
      104,
      104,
      66,
      192
    ],
    "dcmmeta_slice_dim": 2,
    "dcmmeta_version": 0.6,
    "global": {
      "const": {
        "AccessionNumber": "jur4wd1m",
        "AcquisitionMatrix": [
          104,
          0,
          0,
          104
        ],
        "AngioFlag": "N",
        "BitsAllocated": 16,
        "BitsStored": 16,
        "BodyPartExamined": "BRAIN",
        "Columns": 936,
        "EchoNumbers": 1,
        "EchoTime": 37.0,
        "EchoTrainLength": 104,
        "FlipAngle": 68.0,
        "HighBit": 15,
        "ImageOrientationPatient": [
          0.99717385749444,
          0.06838140670034,
          -0.0311172162531,
          -0.0727029137918,
          0.9827126310668,
          -0.1702650024754
        ],
        "ImagePositionPatient": [
          -869.8695601759,
          -1007.7979439869,
          144.76580567999
        ],
        "ImageType": [
          "ORIGINAL",
          "PRIMARY",
          "M",
          "MB",
          "ND",
          "MOSAIC"
        ],
        "ImagedNucleus": "1H",
        "ImagingFrequency": 123.191062,
        "InPlanePhaseEncodingDirection": "COL",
        "MRAcquisitionType": "2D",
        "MagneticFieldStrength": 3.0,
        "Manufacturer": "SIEMENS",
        "ManufacturerModelName": "Prisma",
        "Modality": "MR",
        "NumberOfAverages": 1.0,
        "NumberOfPhaseEncodingSteps": 104,
        "PercentPhaseFieldOfView": 100.0,
        "PercentSampling": 100.0,
        "PerformedProcedureStepStartTime": "090429.769000",
        "PhotometricInterpretation": "MONOCHROME2",
        "PixelBandwidth": 2290.0,
        "PixelRepresentation": 0,
        "PixelSpacing": [
          2.0,
          2.0
        ],
        "ProtocolName": "cmrr_mbepi_s6_2mm_66sl_PA_task-prf",
        "RepetitionTime": 1000.0,
        "Rows": 936,
        "SAR": 0.07431180054154,
        "SamplesPerPixel": 1,
        "ScanOptions": "FS",
        "ScanningSequence": "EP",
        "SequenceName": "epfid2d1_104",
        "SequenceVariant": [
          "SK",
          "SS"
        ],
        "SeriesDescription": "cmrr_mbepi_s6_2mm_66sl_PA_task-prf",
        "SeriesNumber": 16,
        "SeriesTime": "094227.741000",
        "SliceLocation": -47.279019970817,
        "SliceThickness": 2.0,
        "SmallestImagePixelValue": 0,
        "SoftwareVersions": "syngo MR E11",
        "SpacingBetweenSlices": 2.0000000230754,
        "SpecificCharacterSet": "ISO_IR 100",
        "StudyID": "1",
        "StudyTime": "090429.665000",
        "TransmitCoilName": "Body",
        "VariableFlipAngleFlag": "N",
        "WindowCenterWidthExplanation": "Algo1",
        "dBdt": 0.0
      },
      "slices": {}
    },
    "modality": "bold",
    "run_id": 5,
    "session_id": "nyu3t01",
    "subject_id": "wlsubj090",
    "task_id": "prf",
    "time": {
      "samples": {
        "AcquisitionNumber": [
          1,
          2,
          3,
          4,
          5,
          6,
          7,
          8,
          9,
          10,
          11,
          12,
          13,
          14,
          15,
          16,
          17,
          18,
          19,
          20,
          21,
          22,
          23,
          24,
          25,
          26,
          27,
          28,
          29,
          30,
          31,
          32,
          33,
          34,
          35,
          36,
          37,
          38,
          39,
          40,
          41,
          42,
          43,
          44,
          45,
          46,
          47,
          48,
          49,
          50,
          51,
          52,
          53,
          54,
          55,
          56,
          57,
          58,
          59,
          60,
          61,
          62,
          63,
          64,
          65,
          66,
          67,
          68,
          69,
          70,
          71,
          72,
          73,
          74,
          75,
          76,
          77,
          78,
          79,
          80,
          81,
          82,
          83,
          84,
          85,
          86,
          87,
          88,
          89,
          90,
          91,
          92,
          93,
          94,
          95,
          96,
          97,
          98,
          99,
          100,
          101,
          102,
          103,
          104,
          105,
          106,
          107,
          108,
          109,
          110,
          111,
          112,
          113,
          114,
          115,
          116,
          117,
          118,
          119,
          120,
          121,
          122,
          123,
          124,
          125,
          126,
          127,
          128,
          129,
          130,
          131,
          132,
          133,
          134,
          135,
          136,
          137,
          138,
          139,
          140,
          141,
          142,
          143,
          144,
          145,
          146,
          147,
          148,
          149,
          150,
          151,
          152,
          153,
          154,
          155,
          156,
          157,
          158,
          159,
          160,
          161,
          162,
          163,
          164,
          165,
          166,
          167,
          168,
          169,
          170,
          171,
          172,
          173,
          174,
          175,
          176,
          177,
          178,
          179,
          180,
          181,
          182,
          183,
          184,
          185,
          186,
          187,
          188,
          189,
          190,
          191,
          192
        ],
        "AcquisitionTime": [
          "094130.442500",
          "094131.442500",
          "094132.442500",
          "094133.442500",
          "094134.442500",
          "094135.442500",
          "094136.442500",
          "094137.442500",
          "094138.442500",
          "094139.442500",
          "094140.442500",
          "094141.442500",
          "094142.442500",
          "094143.442500",
          "094144.442500",
          "094145.442500",
          "094146.442500",
          "094147.442500",
          "094148.442500",
          "094149.442500",
          "094150.442500",
          "094151.442500",
          "094152.442500",
          "094153.442500",
          "094154.442500",
          "094155.442500",
          "094156.442500",
          "094157.442500",
          "094158.442500",
          "094159.442500",
          "094200.442500",
          "094201.442500",
          "094202.442500",
          "094203.442500",
          "094204.442500",
          "094205.442500",
          "094206.442500",
          "094207.442500",
          "094208.442500",
          "094209.442500",
          "094210.442500",
          "094211.442500",
          "094212.442500",
          "094213.442500",
          "094214.442500",
          "094215.442500",
          "094216.442500",
          "094217.442500",
          "094218.442500",
          "094219.442500",
          "094220.442500",
          "094221.442500",
          "094222.442500",
          "094223.442500",
          "094224.442500",
          "094225.442500",
          "094226.442500",
          "094227.442500",
          "094228.442500",
          "094229.442500",
          "094230.442500",
          "094231.442500",
          "094232.442500",
          "094233.442500",
          "094234.442500",
          "094235.442500",
          "094236.442500",
          "094237.442500",
          "094238.442500",
          "094239.442500",
          "094240.442500",
          "094241.442500",
          "094242.442500",
          "094243.442500",
          "094244.442500",
          "094245.442500",
          "094246.442500",
          "094247.442500",
          "094248.442500",
          "094249.442500",
          "094250.442500",
          "094251.442500",
          "094252.442500",
          "094253.442500",
          "094254.442500",
          "094255.442500",
          "094256.442500",
          "094257.442500",
          "094258.442500",
          "094259.442500",
          "094300.442500",
          "094301.442500",
          "094302.442500",
          "094303.442500",
          "094304.442500",
          "094305.442500",
          "094306.442500",
          "094307.442500",
          "094308.442500",
          "094309.442500",
          "094310.442500",
          "094311.442500",
          "094312.442500",
          "094313.442500",
          "094314.442500",
          "094315.442500",
          "094316.442500",
          "094317.442500",
          "094318.442500",
          "094319.442500",
          "094320.442500",
          "094321.442500",
          "094322.442500",
          "094323.442500",
          "094324.442500",
          "094325.442500",
          "094326.442500",
          "094327.442500",
          "094328.442500",
          "094329.442500",
          "094330.442500",
          "094331.442500",
          "094332.442500",
          "094333.442500",
          "094334.442500",
          "094335.442500",
          "094336.442500",
          "094337.442500",
          "094338.442500",
          "094339.442500",
          "094340.442500",
          "094341.442500",
          "094342.442500",
          "094343.442500",
          "094344.442500",
          "094345.442500",
          "094346.442500",
          "094347.442500",
          "094348.442500",
          "094349.442500",
          "094350.442500",
          "094351.442500",
          "094352.442500",
          "094353.442500",
          "094354.442500",
          "094355.442500",
          "094356.442500",
          "094357.442500",
          "094358.442500",
          "094359.442500",
          "094400.442500",
          "094401.442500",
          "094402.442500",
          "094403.442500",
          "094404.442500",
          "094405.442500",
          "094406.442500",
          "094407.442500",
          "094408.442500",
          "094409.442500",
          "094410.442500",
          "094411.442500",
          "094412.442500",
          "094413.442500",
          "094414.442500",
          "094415.442500",
          "094416.442500",
          "094417.442500",
          "094418.442500",
          "094419.442500",
          "094420.442500",
          "094421.442500",
          "094422.442500",
          "094423.442500",
          "094424.442500",
          "094425.442500",
          "094426.442500",
          "094427.442500",
          "094428.442500",
          "094429.442500",
          "094430.442500",
          "094431.442500",
          "094432.442500",
          "094433.442500",
          "094434.442500",
          "094435.442500",
          "094436.442500",
          "094437.442500",
          "094438.442500",
          "094439.442500",
          "094440.442500",
          "094441.442500"
        ],
        "ContentTime": [
          "094227.744000",
          "094232.710000",
          "094232.713000",
          "094232.716000",
          "094232.719000",
          "094232.722000",
          "094232.724000",
          "094232.727000",
          "094237.710000",
          "094237.713000",
          "094237.716000",
          "094237.719000",
          "094237.722000",
          "094237.724000",
          "094237.727000",
          "094242.710000",
          "094242.713000",
          "094242.716000",
          "094242.718000",
          "094242.721000",
          "094242.724000",
          "094242.727000",
          "094247.710000",
          "094247.713000",
          "094247.716000",
          "094247.719000",
          "094247.722000",
          "094247.725000",
          "094247.727000",
          "094252.710000",
          "094252.714000",
          "094252.718000",
          "094252.722000",
          "094252.725000",
          "094252.728000",
          "094252.731000",
          "094257.710000",
          "094257.713000",
          "094257.716000",
          "094257.719000",
          "094257.721000",
          "094257.724000",
          "094257.727000",
          "094257.730000",
          "094302.710000",
          "094302.713000",
          "094302.716000",
          "094302.719000",
          "094302.722000",
          "094302.725000",
          "094302.727000",
          "094307.710000",
          "094307.713000",
          "094307.716000",
          "094307.719000",
          "094307.721000",
          "094307.724000",
          "094307.727000",
          "094312.710000",
          "094312.719000",
          "094312.722000",
          "094312.731000",
          "094312.734000",
          "094312.737000",
          "094312.739000",
          "094317.710000",
          "094317.713000",
          "094317.716000",
          "094317.719000",
          "094317.722000",
          "094317.724000",
          "094317.727000",
          "094322.710000",
          "094322.713000",
          "094322.716000",
          "094322.719000",
          "094322.722000",
          "094322.725000",
          "094322.727000",
          "094327.710000",
          "094327.713000",
          "094327.716000",
          "094327.719000",
          "094327.722000",
          "094327.725000",
          "094327.728000",
          "094332.710000",
          "094332.713000",
          "094332.716000",
          "094332.719000",
          "094332.722000",
          "094332.728000",
          "094332.731000",
          "094337.710000",
          "094337.713000",
          "094337.716000",
          "094337.719000",
          "094337.722000",
          "094337.724000",
          "094337.727000",
          "094342.710000",
          "094342.713000",
          "094342.716000",
          "094342.719000",
          "094342.722000",
          "094342.725000",
          "094342.727000",
          "094347.710000",
          "094347.713000",
          "094347.716000",
          "094347.719000",
          "094347.722000",
          "094347.725000",
          "094347.728000",
          "094352.710000",
          "094352.713000",
          "094352.716000",
          "094352.719000",
          "094352.722000",
          "094352.725000",
          "094352.728000",
          "094357.711000",
          "094357.714000",
          "094357.717000",
          "094357.720000",
          "094357.723000",
          "094357.726000",
          "094357.729000",
          "094402.710000",
          "094402.713000",
          "094402.716000",
          "094402.719000",
          "094402.722000",
          "094402.725000",
          "094402.728000",
          "094407.710000",
          "094407.713000",
          "094407.716000",
          "094407.719000",
          "094407.722000",
          "094407.724000",
          "094407.727000",
          "094407.730000",
          "094412.710000",
          "094412.713000",
          "094412.716000",
          "094412.719000",
          "094412.722000",
          "094412.725000",
          "094412.727000",
          "094417.710000",
          "094417.713000",
          "094417.716000",
          "094417.719000",
          "094417.722000",
          "094417.725000",
          "094417.728000",
          "094422.710000",
          "094422.713000",
          "094422.716000",
          "094422.719000",
          "094422.722000",
          "094422.725000",
          "094422.727000",
          "094427.710000",
          "094427.713000",
          "094427.716000",
          "094427.719000",
          "094427.722000",
          "094427.725000",
          "094427.728000",
          "094432.710000",
          "094432.713000",
          "094432.716000",
          "094432.719000",
          "094432.722000",
          "094432.725000",
          "094432.727000",
          "094437.710000",
          "094437.713000",
          "094437.716000",
          "094437.719000",
          "094437.722000",
          "094437.725000",
          "094437.727000",
          "094442.710000",
          "094442.713000",
          "094442.716000",
          "094442.719000",
          "094442.722000",
          "094442.725000",
          "094442.949000"
        ],
        "InstanceCreationTime": [
          "094227.744000",
          "094232.710000",
          "094232.713000",
          "094232.716000",
          "094232.719000",
          "094232.722000",
          "094232.724000",
          "094232.727000",
          "094237.710000",
          "094237.713000",
          "094237.716000",
          "094237.719000",
          "094237.722000",
          "094237.724000",
          "094237.727000",
          "094242.710000",
          "094242.713000",
          "094242.716000",
          "094242.718000",
          "094242.721000",
          "094242.724000",
          "094242.727000",
          "094247.710000",
          "094247.713000",
          "094247.716000",
          "094247.719000",
          "094247.722000",
          "094247.725000",
          "094247.727000",
          "094252.710000",
          "094252.714000",
          "094252.718000",
          "094252.722000",
          "094252.725000",
          "094252.728000",
          "094252.731000",
          "094257.710000",
          "094257.713000",
          "094257.716000",
          "094257.719000",
          "094257.721000",
          "094257.724000",
          "094257.727000",
          "094257.730000",
          "094302.710000",
          "094302.713000",
          "094302.716000",
          "094302.719000",
          "094302.722000",
          "094302.725000",
          "094302.727000",
          "094307.710000",
          "094307.713000",
          "094307.716000",
          "094307.719000",
          "094307.721000",
          "094307.724000",
          "094307.727000",
          "094312.710000",
          "094312.719000",
          "094312.722000",
          "094312.731000",
          "094312.734000",
          "094312.737000",
          "094312.739000",
          "094317.710000",
          "094317.713000",
          "094317.716000",
          "094317.719000",
          "094317.722000",
          "094317.724000",
          "094317.727000",
          "094322.710000",
          "094322.713000",
          "094322.716000",
          "094322.719000",
          "094322.722000",
          "094322.725000",
          "094322.727000",
          "094327.710000",
          "094327.713000",
          "094327.716000",
          "094327.719000",
          "094327.722000",
          "094327.725000",
          "094327.728000",
          "094332.710000",
          "094332.713000",
          "094332.716000",
          "094332.719000",
          "094332.722000",
          "094332.728000",
          "094332.731000",
          "094337.710000",
          "094337.713000",
          "094337.716000",
          "094337.719000",
          "094337.722000",
          "094337.724000",
          "094337.727000",
          "094342.710000",
          "094342.713000",
          "094342.716000",
          "094342.719000",
          "094342.722000",
          "094342.725000",
          "094342.727000",
          "094347.710000",
          "094347.713000",
          "094347.716000",
          "094347.719000",
          "094347.722000",
          "094347.725000",
          "094347.728000",
          "094352.710000",
          "094352.713000",
          "094352.716000",
          "094352.719000",
          "094352.722000",
          "094352.725000",
          "094352.728000",
          "094357.711000",
          "094357.714000",
          "094357.717000",
          "094357.720000",
          "094357.723000",
          "094357.726000",
          "094357.729000",
          "094402.710000",
          "094402.713000",
          "094402.716000",
          "094402.719000",
          "094402.722000",
          "094402.725000",
          "094402.728000",
          "094407.710000",
          "094407.713000",
          "094407.716000",
          "094407.719000",
          "094407.722000",
          "094407.724000",
          "094407.727000",
          "094407.730000",
          "094412.710000",
          "094412.713000",
          "094412.716000",
          "094412.719000",
          "094412.722000",
          "094412.725000",
          "094412.727000",
          "094417.710000",
          "094417.713000",
          "094417.716000",
          "094417.719000",
          "094417.722000",
          "094417.725000",
          "094417.728000",
          "094422.710000",
          "094422.713000",
          "094422.716000",
          "094422.719000",
          "094422.722000",
          "094422.725000",
          "094422.727000",
          "094427.710000",
          "094427.713000",
          "094427.716000",
          "094427.719000",
          "094427.722000",
          "094427.725000",
          "094427.728000",
          "094432.710000",
          "094432.713000",
          "094432.716000",
          "094432.719000",
          "094432.722000",
          "094432.725000",
          "094432.727000",
          "094437.710000",
          "094437.713000",
          "094437.716000",
          "094437.719000",
          "094437.722000",
          "094437.725000",
          "094437.727000",
          "094442.710000",
          "094442.713000",
          "094442.716000",
          "094442.719000",
          "094442.722000",
          "094442.725000",
          "094442.949000"
        ],
        "InstanceNumber": [
          1,
          2,
          3,
          4,
          5,
          6,
          7,
          8,
          9,
          10,
          11,
          12,
          13,
          14,
          15,
          16,
          17,
          18,
          19,
          20,
          21,
          22,
          23,
          24,
          25,
          26,
          27,
          28,
          29,
          30,
          31,
          32,
          33,
          34,
          35,
          36,
          37,
          38,
          39,
          40,
          41,
          42,
          43,
          44,
          45,
          46,
          47,
          48,
          49,
          50,
          51,
          52,
          53,
          54,
          55,
          56,
          57,
          58,
          59,
          60,
          61,
          62,
          63,
          64,
          65,
          66,
          67,
          68,
          69,
          70,
          71,
          72,
          73,
          74,
          75,
          76,
          77,
          78,
          79,
          80,
          81,
          82,
          83,
          84,
          85,
          86,
          87,
          88,
          89,
          90,
          91,
          92,
          93,
          94,
          95,
          96,
          97,
          98,
          99,
          100,
          101,
          102,
          103,
          104,
          105,
          106,
          107,
          108,
          109,
          110,
          111,
          112,
          113,
          114,
          115,
          116,
          117,
          118,
          119,
          120,
          121,
          122,
          123,
          124,
          125,
          126,
          127,
          128,
          129,
          130,
          131,
          132,
          133,
          134,
          135,
          136,
          137,
          138,
          139,
          140,
          141,
          142,
          143,
          144,
          145,
          146,
          147,
          148,
          149,
          150,
          151,
          152,
          153,
          154,
          155,
          156,
          157,
          158,
          159,
          160,
          161,
          162,
          163,
          164,
          165,
          166,
          167,
          168,
          169,
          170,
          171,
          172,
          173,
          174,
          175,
          176,
          177,
          178,
          179,
          180,
          181,
          182,
          183,
          184,
          185,
          186,
          187,
          188,
          189,
          190,
          191,
          192
        ],
        "LargestImagePixelValue": [
          33090,
          32238,
          31799,
          31322,
          31181,
          31483,
          31761,
          31595,
          32928,
          33229,
          33346,
          33731,
          33196,
          32922,
          33590,
          32383,
          31987,
          32796,
          32216,
          31768,
          31587,
          31606,
          31418,
          30879,
          30866,
          31015,
          30975,
          31498,
          31562,
          31482,
          31566,
          31939,
          31406,
          31144,
          31212,
          31317,
          31184,
          31168,
          31459,
          32944,
          35122,
          31812,
          32633,
          33072,
          32918,
          33068,
          32091,
          31177,
          30850,
          31220,
          31397,
          31781,
          31606,
          31617,
          31734,
          31716,
          31471,
          32011,
          32315,
          31737,
          31873,
          32061,
          32442,
          31799,
          32752,
          32318,
          32466,
          33140,
          33128,
          33017,
          33252,
          33681,
          32531,
          32740,
          32476,
          31806,
          31791,
          31989,
          31653,
          31495,
          32158,
          32363,
          31782,
