{
  "aor": 0.0005669270833333332,
  "aqi": 0.005589882604166666,
  "bids_meta": {
    "AcquisitionMatrixPE": 104,
    "AcquisitionNumber": 1,
    "AcquisitionTime": "16:26:42.542500",
    "BandwidthPerPixelPhaseEncode": 16.578,
    "BaseResolution": 104,
    "BodyPartExamined": "BRAIN",
    "CogAtlasID": "TODO",
    "ConsistencyInfo": "N4_VE11C_LATEST_20160120",
    "ConversionSoftware": "dcm2niix",
    "ConversionSoftwareVersion": "v1.0.20190902",
    "DerivedVendorReportedEchoSpacing": 0.000580009,
    "DeviceSerialNumber": "166018",
    "DwellTime": 2.1e-06,
    "EchoTime": 0.037,
    "EchoTrainLength": 104,
    "EffectiveEchoSpacing": 0.000580009,
    "FlipAngle": 68,
    "ImageComments": "Unaliased_MB6_PE3_LB",
    "ImageOrientationPatientDICOM": [
      0.998521,
      -0.0247588,
      0.048393,
      0.0415013,
      0.922188,
      -0.38451
    ],
    "ImageType": [
      "ORIGINAL",
      "PRIMARY",
      "M",
      "MB",
      "ND",
      "MOSAIC"
    ],
    "ImagingFrequency": 123.191,
    "InPlanePhaseEncodingDirectionDICOM": "COL",
    "InstitutionAddress": "Washington_Place_6_NYC_NYC_US_10003",
    "InstitutionName": "NYU_-_CBI",
    "InstitutionalDepartmentName": "Department",
    "MRAcquisitionType": "2D",
    "MagneticFieldStrength": 3,
    "Manufacturer": "Siemens",
    "ManufacturersModelName": "Prisma",
    "Modality": "MR",
    "MultibandAccelerationFactor": 6,
    "NumberOfVolumes": 192,
    "PartialFourier": 1,
    "PatientPosition": "HFS",
    "PercentPhaseFOV": 100,
    "PhaseEncodingDirection": "j",
    "PhaseEncodingSteps": 104,
    "PhaseResolution": 1,
    "PixelBandwidth": 2290,
    "ProcedureStepDescription": "Investigators_Winawer",
    "ProtocolName": "cmrr_mbepi_s6_2mm_66sl_PA_TR1.0",
    "PulseSequenceDetails": "%CustomerSeq%_cmrr_mbep2d_bold",
    "ReceiveCoilActiveElements": "HC1-7",
    "ReceiveCoilName": "HeadNeck_64",
    "ReconMatrixPE": 104,
    "RepetitionTime": 1,
    "SAR": 0.065334,
    "ScanOptions": "FS",
    "ScanningSequence": "EP",
    "SequenceName": "epfid2d1_104",
    "SequenceVariant": "SK_SS",
    "SeriesDescription": "cmrr_mbepi_s6_2mm_66sl_PA_TR1.0",
    "SeriesNumber": 30,
    "ShimSetting": [
      261,
      -12580,
      -8459,
      482,
      6,
      -143,
      -82,
      -33
    ],
    "SliceThickness": 2,
    "SliceTiming": [
      0,
      0.535,
      0.09,
      0.625,
      0.1775,
      0.7125,
      0.2675,
      0.8025,
      0.3575,
      0.89,
      0.445,
      0,
      0.535,
      0.09,
      0.625,
      0.1775,
      0.7125,
      0.2675,
      0.8025,
      0.3575,
      0.89,
      0.445,
      0,
      0.535,
      0.09,
      0.625,
      0.1775,
      0.7125,
      0.2675,
      0.8025,
      0.3575,
      0.89,
      0.445,
      0,
      0.535,
      0.09,
      0.625,
      0.1775,
      0.7125,
      0.2675,
      0.8025,
      0.3575,
      0.89,
      0.445,
      0,
      0.535,
      0.09,
      0.625,
      0.1775,
      0.7125,
      0.2675,
      0.8025,
      0.3575,
      0.89,
      0.445,
      0,
      0.535,
      0.09,
      0.625,
      0.1775,
      0.7125,
      0.2675,
      0.8025,
      0.3575,
      0.89,
      0.445
    ],
    "SoftwareVersions": "syngo_MR_E11",
    "SpacingBetweenSlices": 2,
    "StationName": "AWP166018",
    "TaskName": "prf",
    "TotalReadoutTime": 0.0597409,
    "TxRefAmp": 234.373,
    "WipMemBlock": "f00b4274-79a4-428b-adfe-eeddc02bcf75||Sequence: ve11c/master r/ab69a6c; Apr 19 2017 09:47:47 by eja",
    "acq_id": "PA",
    "dataset": "unknown",
    "dcmmeta_affine": [
      [
        -1.9970428943634033,
        0.0830025002360344,
        0.0702148973941803,
        110.34679412841797
      ],
      [
        0.049517672508955,
        1.8443751335144043,
        -0.7718992829322815,
        -64.71625518798828
      ],
      [
        0.09678608924150467,
        0.7690195441246033,
        1.843703269958496,
        -96.47901916503906
      ],
      [
        0.0,
        0.0,
        0.0,
        1.0
      ]
    ],
    "dcmmeta_reorient_transform": [
      [
        0.0,
        -1.0,
        0.0,
        103.0
      ],
      [
        1.0,
        0.0,
        0.0,
        0.0
      ],
      [
        0.0,
        0.0,
        1.0,
        0.0
      ],
      [
        0.0,
        0.0,
        0.0,
        1.0
      ]
    ],
    "dcmmeta_shape": [
      104,
      104,
      66,
      192
    ],
    "dcmmeta_slice_dim": 2,
    "dcmmeta_version": 0.6,
    "global": {
      "const": {
        "AccessionNumber": "j6wepnxe",
        "AcquisitionMatrix": [
          104,
          0,
          0,
          104
        ],
        "AngioFlag": "N",
        "BitsAllocated": 16,
        "BitsStored": 16,
        "BodyPartExamined": "BRAIN",
        "Columns": 936,
        "EchoNumbers": 1,
        "EchoTime": 37.0,
        "EchoTrainLength": 104,
        "FlipAngle": 68.0,
        "HighBit": 15,
        "ImageOrientationPatient": [
          0.99852146361479,
          -0.0247588370637,
          0.04839304379581,
          0.04150125035507,
          0.9221875559071,
          -0.3845097631388
        ],
        "ImagePositionPatient": [
          -984.19494958396,
          -871.91507572875,
          262.37910260703
        ],
        "ImageType": [
          "ORIGINAL",
          "PRIMARY",
          "M",
          "MB",
          "ND",
          "MOSAIC"
        ],
        "ImagedNucleus": "1H",
        "ImagingFrequency": 123.191345,
        "InPlanePhaseEncodingDirection": "COL",
        "MRAcquisitionType": "2D",
        "MagneticFieldStrength": 3.0,
        "Manufacturer": "SIEMENS",
        "ManufacturerModelName": "Prisma",
        "Modality": "MR",
        "NumberOfAverages": 1.0,
        "NumberOfPhaseEncodingSteps": 104,
        "PercentPhaseFieldOfView": 100.0,
        "PercentSampling": 100.0,
        "PerformedProcedureStepStartTime": "154117.736000",
        "PhotometricInterpretation": "MONOCHROME2",
        "PixelBandwidth": 2290.0,
        "PixelRepresentation": 0,
        "PixelSpacing": [
          2.0,
          2.0
        ],
        "ProtocolName": "cmrr_mbepi_s6_2mm_66sl_PA_TR1.0",
        "RepetitionTime": 1000.0,
        "Rows": 936,
        "SAR": 0.06533400942532,
        "SamplesPerPixel": 1,
        "ScanOptions": "FS",
        "ScanningSequence": "EP",
        "SequenceName": "epfid2d1_104",
        "SequenceVariant": [
          "SK",
          "SS"
        ],
        "SeriesDescription": "cmrr_mbepi_s6_2mm_66sl_PA_TR1.0",
        "SeriesNumber": 30,
        "SeriesTime": "162749.244000",
        "SliceLocation": -60.088128683745,
        "SliceThickness": 2.0,
        "SmallestImagePixelValue": 0,
        "SoftwareVersions": "syngo MR E11",
        "SpacingBetweenSlices": 2.0000000486852,
        "SpecificCharacterSet": "ISO_IR 100",
        "StudyID": "1",
        "StudyTime": "154117.674000",
        "TransmitCoilName": "Body",
        "VariableFlipAngleFlag": "N",
        "WindowCenterWidthExplanation": "Algo1",
        "dBdt": 0.0
      },
      "slices": {}
    },
    "modality": "bold",
    "run_id": 11,
    "session_id": "nyu3t01",
    "subject_id": "wlsubj043",
    "task_id": "prf",
    "time": {
      "samples": {
        "AcquisitionNumber": [
          1,
          2,
          3,
          4,
          5,
          6,
          7,
          8,
          9,
          10,
          11,
          12,
          13,
          14,
          15,
          16,
          17,
          18,
          19,
          20,
          21,
          22,
          23,
          24,
          25,
          26,
          27,
          28,
          29,
          30,
          31,
          32,
          33,
          34,
          35,
          36,
          37,
          38,
          39,
          40,
          41,
          42,
          43,
          44,
          45,
          46,
          47,
          48,
          49,
          50,
          51,
          52,
          53,
          54,
          55,
          56,
          57,
          58,
          59,
          60,
          61,
          62,
          63,
          64,
          65,
          66,
          67,
          68,
          69,
          70,
          71,
          72,
          73,
          74,
          75,
          76,
          77,
          78,
          79,
          80,
          81,
          82,
          83,
          84,
          85,
          86,
          87,
          88,
          89,
          90,
          91,
          92,
          93,
          94,
          95,
          96,
          97,
          98,
          99,
          100,
          101,
          102,
          103,
          104,
          105,
          106,
          107,
          108,
          109,
          110,
          111,
          112,
          113,
          114,
          115,
          116,
          117,
          118,
          119,
          120,
          121,
          122,
          123,
          124,
          125,
          126,
          127,
          128,
          129,
          130,
          131,
          132,
          133,
          134,
          135,
          136,
          137,
          138,
          139,
          140,
          141,
          142,
          143,
          144,
          145,
          146,
          147,
          148,
          149,
          150,
          151,
          152,
          153,
          154,
          155,
          156,
          157,
          158,
          159,
          160,
          161,
          162,
          163,
          164,
          165,
          166,
          167,
          168,
          169,
          170,
          171,
          172,
          173,
          174,
          175,
          176,
          177,
          178,
          179,
          180,
          181,
          182,
          183,
          184,
          185,
          186,
          187,
          188,
          189,
          190,
          191,
          192
        ],
        "AcquisitionTime": [
          "162642.542500",
          "162643.542500",
          "162644.542500",
          "162645.542500",
          "162646.542500",
          "162647.542500",
          "162648.542500",
          "162649.542500",
          "162650.542500",
          "162651.542500",
          "162652.542500",
          "162653.542500",
          "162654.542500",
          "162655.542500",
          "162656.542500",
          "162657.542500",
          "162658.542500",
          "162659.542500",
          "162700.542500",
          "162701.542500",
          "162702.542500",
          "162703.542500",
          "162704.542500",
          "162705.542500",
          "162706.542500",
          "162707.542500",
          "162708.542500",
          "162709.542500",
          "162710.542500",
          "162711.542500",
          "162712.542500",
          "162713.542500",
          "162714.542500",
          "162715.542500",
          "162716.542500",
          "162717.542500",
          "162718.542500",
          "162719.542500",
          "162720.542500",
          "162721.542500",
          "162722.542500",
          "162723.542500",
          "162724.542500",
          "162725.542500",
          "162726.542500",
          "162727.542500",
          "162728.542500",
          "162729.542500",
          "162730.542500",
          "162731.542500",
          "162732.542500",
          "162733.542500",
          "162734.542500",
          "162735.542500",
          "162736.542500",
          "162737.542500",
          "162738.542500",
          "162739.542500",
          "162740.542500",
          "162741.542500",
          "162742.542500",
          "162743.542500",
          "162744.542500",
          "162745.542500",
          "162746.542500",
          "162747.542500",
          "162748.542500",
          "162749.542500",
          "162750.542500",
          "162751.542500",
          "162752.542500",
          "162753.542500",
          "162754.542500",
          "162755.542500",
          "162756.542500",
          "162757.542500",
          "162758.542500",
          "162759.542500",
          "162800.542500",
          "162801.542500",
          "162802.542500",
          "162803.542500",
          "162804.542500",
          "162805.542500",
          "162806.542500",
          "162807.542500",
          "162808.542500",
          "162809.542500",
          "162810.542500",
          "162811.542500",
          "162812.542500",
          "162813.542500",
          "162814.542500",
          "162815.542500",
          "162816.542500",
          "162817.542500",
          "162818.542500",
          "162819.542500",
          "162820.542500",
          "162821.542500",
          "162822.542500",
          "162823.542500",
          "162824.542500",
          "162825.542500",
          "162826.542500",
          "162827.542500",
          "162828.542500",
          "162829.542500",
          "162830.542500",
          "162831.542500",
          "162832.542500",
          "162833.542500",
          "162834.542500",
          "162835.542500",
          "162836.542500",
          "162837.542500",
          "162838.542500",
          "162839.542500",
          "162840.542500",
          "162841.542500",
          "162842.542500",
          "162843.542500",
          "162844.542500",
          "162845.542500",
          "162846.542500",
          "162847.542500",
          "162848.542500",
          "162849.542500",
          "162850.542500",
          "162851.542500",
          "162852.542500",
          "162853.542500",
          "162854.542500",
          "162855.542500",
          "162856.542500",
          "162857.542500",
          "162858.542500",
          "162859.542500",
          "162900.542500",
          "162901.542500",
          "162902.542500",
          "162903.542500",
          "162904.542500",
          "162905.542500",
          "162906.542500",
          "162907.542500",
          "162908.542500",
          "162909.542500",
          "162910.542500",
          "162911.542500",
          "162912.542500",
          "162913.542500",
          "162914.542500",
          "162915.542500",
          "162916.542500",
          "162917.542500",
          "162918.542500",
          "162919.542500",
          "162920.542500",
          "162921.542500",
          "162922.542500",
          "162923.542500",
          "162924.542500",
          "162925.542500",
          "162926.542500",
          "162927.542500",
          "162928.542500",
          "162929.542500",
          "162930.542500",
          "162931.542500",
          "162932.542500",
          "162933.542500",
          "162934.542500",
          "162935.542500",
          "162936.542500",
          "162937.542500",
          "162938.542500",
          "162939.542500",
          "162940.542500",
          "162941.542500",
          "162942.542500",
          "162943.542500",
          "162944.542500",
          "162945.542500",
          "162946.542500",
          "162947.542500",
          "162948.542500",
          "162949.542500",
          "162950.542500",
          "162951.542500",
          "162952.542500",
          "162953.542500"
        ],
        "ContentTime": [
          "162749.247000",
          "162749.250000",
          "162749.254000",
          "162749.257000",
          "162749.259000",
          "162749.269000",
          "162749.272000",
          "162749.275000",
          "162749.278000",
          "162749.281000",
          "162749.284000",
          "162749.289000",
          "162749.293000",
          "162749.296000",
          "162749.299000",
          "162749.302000",
          "162749.305000",
          "162749.307000",
          "162749.311000",
          "162749.313000",
          "162749.316000",
          "162749.319000",
          "162749.322000",
          "162749.343000",
          "162809.211000",
          "162809.214000",
          "162809.217000",
          "162809.220000",
          "162809.224000",
          "162809.227000",
          "162809.230000",
          "162809.233000",
          "162809.236000",
          "162809.239000",
          "162809.242000",
          "162809.245000",
          "162809.248000",
          "162809.252000",
          "162809.254000",
          "162809.263000",
          "162809.266000",
          "162809.270000",
          "162809.272000",
          "162809.275000",
          "162809.278000",
          "162809.281000",
          "162809.284000",
          "162809.288000",
          "162809.290000",
          "162809.294000",
          "162809.297000",
          "162809.299000",
          "162829.211000",
          "162829.214000",
          "162829.217000",
          "162829.220000",
          "162829.223000",
          "162829.226000",
          "162829.229000",
          "162829.232000",
          "162829.235000",
          "162829.238000",
          "162829.241000",
          "162829.244000",
          "162829.247000",
          "162829.250000",
          "162829.253000",
          "162829.256000",
          "162829.259000",
          "162829.262000",
          "162829.266000",
          "162829.272000",
          "162829.277000",
          "162829.280000",
          "162829.283000",
          "162829.287000",
          "162829.290000",
          "162829.293000",
          "162829.296000",
          "162829.299000",
          "162849.211000",
          "162849.214000",
          "162849.217000",
          "162849.220000",
          "162849.223000",
          "162849.226000",
          "162849.229000",
          "162849.232000",
          "162849.235000",
          "162849.238000",
          "162849.241000",
          "162849.244000",
          "162849.247000",
          "162849.250000",
          "162849.253000",
          "162849.256000",
          "162849.259000",
          "162849.262000",
          "162849.265000",
          "162849.268000",
          "162849.271000",
          "162849.274000",
          "162849.277000",
          "162849.280000",
          "162849.283000",
          "162849.286000",
          "162849.289000",
          "162849.292000",
          "162849.295000",
          "162909.211000",
          "162909.214000",
          "162909.217000",
          "162909.220000",
          "162909.223000",
          "162909.226000",
          "162909.229000",
          "162909.232000",
          "162909.235000",
          "162909.238000",
          "162909.241000",
          "162909.244000",
          "162909.247000",
          "162909.250000",
          "162909.254000",
          "162909.256000",
          "162909.259000",
          "162909.262000",
          "162909.265000",
          "162909.268000",
          "162909.271000",
          "162909.274000",
          "162909.277000",
          "162909.280000",
          "162909.283000",
          "162909.286000",
          "162909.290000",
          "162909.299000",
          "162929.211000",
          "162929.214000",
          "162929.217000",
          "162929.220000",
          "162929.223000",
          "162929.226000",
          "162929.229000",
          "162929.232000",
          "162929.235000",
          "162929.238000",
          "162929.241000",
          "162929.244000",
          "162929.247000",
          "162929.250000",
          "162929.253000",
          "162929.256000",
          "162929.259000",
          "162929.262000",
          "162929.265000",
          "162929.268000",
          "162929.271000",
          "162929.274000",
          "162929.277000",
          "162929.280000",
          "162929.283000",
          "162929.286000",
          "162929.289000",
          "162929.292000",
          "162929.295000",
          "162949.211000",
          "162949.214000",
          "162949.217000",
          "162949.220000",
          "162949.223000",
          "162949.226000",
          "162949.229000",
          "162949.232000",
          "162949.235000",
          "162949.238000",
          "162949.241000",
          "162949.244000",
          "162949.247000",
          "162949.250000",
          "162949.253000",
          "162949.257000",
          "162949.260000",
          "162949.262000",
          "162949.265000",
          "162949.272000",
          "162954.802000",
          "162954.805000",
          "162954.808000",
          "162954.814000",
          "162954.817000",
          "162954.820000"
        ],
        "InstanceCreationTime": [
          "162749.247000",
          "162749.250000",
          "162749.254000",
          "162749.257000",
          "162749.259000",
          "162749.269000",
          "162749.272000",
          "162749.275000",
          "162749.278000",
          "162749.281000",
          "162749.284000",
          "162749.289000",
          "162749.293000",
          "162749.296000",
          "162749.299000",
          "162749.302000",
          "162749.305000",
          "162749.307000",
          "162749.311000",
          "162749.313000",
          "162749.316000",
          "162749.319000",
          "162749.322000",
          "162749.343000",
          "162809.211000",
          "162809.214000",
          "162809.217000",
          "162809.220000",
          "162809.224000",
          "162809.227000",
          "162809.230000",
          "162809.233000",
          "162809.236000",
          "162809.239000",
          "162809.242000",
          "162809.245000",
          "162809.248000",
          "162809.252000",
          "162809.254000",
          "162809.263000",
          "162809.266000",
          "162809.270000",
          "162809.272000",
          "162809.275000",
          "162809.278000",
          "162809.281000",
          "162809.284000",
          "162809.288000",
          "162809.290000",
          "162809.294000",
          "162809.297000",
          "162809.299000",
          "162829.211000",
          "162829.214000",
          "162829.217000",
          "162829.220000",
          "162829.223000",
          "162829.226000",
          "162829.229000",
          "162829.232000",
          "162829.235000",
          "162829.238000",
          "162829.241000",
          "162829.244000",
          "162829.247000",
          "162829.250000",
          "162829.253000",
          "162829.256000",
          "162829.259000",
          "162829.262000",
          "162829.266000",
          "162829.272000",
          "162829.277000",
          "162829.280000",
          "162829.283000",
          "162829.287000",
          "162829.290000",
          "162829.293000",
          "162829.296000",
          "162829.299000",
          "162849.211000",
          "162849.214000",
          "162849.217000",
          "162849.220000",
          "162849.223000",
          "162849.226000",
          "162849.229000",
          "162849.232000",
          "162849.235000",
          "162849.238000",
          "162849.241000",
          "162849.244000",
          "162849.247000",
          "162849.250000",
          "162849.253000",
          "162849.256000",
          "162849.259000",
          "162849.262000",
          "162849.265000",
          "162849.268000",
          "162849.271000",
          "162849.274000",
          "162849.277000",
          "162849.280000",
          "162849.283000",
          "162849.286000",
          "162849.289000",
          "162849.292000",
          "162849.295000",
          "162909.211000",
          "162909.214000",
          "162909.217000",
          "162909.220000",
          "162909.223000",
          "162909.226000",
          "162909.229000",
          "162909.232000",
          "162909.235000",
          "162909.238000",
          "162909.241000",
          "162909.244000",
          "162909.247000",
          "162909.250000",
          "162909.254000",
          "162909.256000",
          "162909.259000",
          "162909.262000",
          "162909.265000",
          "162909.268000",
          "162909.271000",
          "162909.274000",
          "162909.277000",
          "162909.280000",
          "162909.283000",
          "162909.286000",
          "162909.290000",
          "162909.299000",
          "162929.211000",
          "162929.214000",
          "162929.217000",
          "162929.220000",
          "162929.223000",
          "162929.226000",
          "162929.229000",
          "162929.232000",
          "162929.235000",
          "162929.238000",
          "162929.241000",
          "162929.244000",
          "162929.247000",
          "162929.250000",
          "162929.253000",
          "162929.256000",
          "162929.259000",
          "162929.262000",
          "162929.265000",
          "162929.268000",
          "162929.271000",
          "162929.274000",
          "162929.277000",
          "162929.280000",
          "162929.283000",
          "162929.286000",
          "162929.289000",
          "162929.292000",
          "162929.295000",
          "162949.211000",
          "162949.214000",
          "162949.217000",
          "162949.220000",
          "162949.223000",
          "162949.226000",
          "162949.229000",
          "162949.232000",
          "162949.235000",
          "162949.238000",
          "162949.241000",
          "162949.244000",
          "162949.247000",
          "162949.250000",
          "162949.253000",
          "162949.257000",
          "162949.260000",
          "162949.262000",
          "162949.265000",
          "162949.272000",
          "162954.802000",
          "162954.805000",
          "162954.808000",
          "162954.814000",
          "162954.817000",
          "162954.820000"
        ],
        "InstanceNumber": [
          1,
          2,
          3,
          4,
          5,
          6,
          7,
          8,
          9,
          10,
          11,
          12,
          13,
          14,
          15,
          16,
          17,
          18,
          19,
          20,
          21,
          22,
          23,
          24,
          25,
          26,
          27,
          28,
          29,
          30,
          31,
          32,
          33,
          34,
          35,
          36,
          37,
          38,
          39,
          40,
          41,
          42,
          43,
          44,
          45,
          46,
          47,
          48,
          49,
          50,
          51,
          52,
          53,
          54,
          55,
          56,
          57,
          58,
          59,
          60,
          61,
          62,
          63,
          64,
          65,
          66,
          67,
          68,
          69,
          70,
          71,
          72,
          73,
          74,
          75,
          76,
          77,
          78,
          79,
          80,
          81,
          82,
          83,
          84,
          85,
          86,
          87,
          88,
          89,
          90,
          91,
          92,
          93,
          94,
          95,
          96,
          97,
          98,
          99,
          100,
          101,
          102,
          103,
          104,
          105,
          106,
          107,
          108,
          109,
          110,
          111,
          112,
          113,
          114,
          115,
          116,
          117,
          118,
          119,
          120,
          121,
          122,
          123,
          124,
          125,
          126,
          127,
          128,
          129,
          130,
          131,
          132,
          133,
          134,
          135,
          136,
          137,
          138,
          139,
          140,
          141,
          142,
          143,
          144,
          145,
          146,
          147,
          148,
          149,
          150,
          151,
          152,
          153,
          154,
          155,
          156,
          157,
          158,
          159,
          160,
          161,
          162,
          163,
          164,
          165,
          166,
          167,
          168,
          169,
          170,
          171,
          172,
          173,
          174,
          175,
          176,
          177,
          178,
          179,
          180,
          181,
          182,
          183,
          184,
          185,
          186,
          187,
          188,
          189,
          190,
          191,
          192
        ],
        "LargestImagePixelValue": [
          34479,
          33183,
          33403,
          32570,
          32697,
          32190,
          32008,
          31848,
          31730,
          31683,
          32278,
          32243,
          32133,
          31618,
          32229,
          32227,
          31845,
          31908,
          32236,
          31878,
          31873,
          31571,
          32096,
          32227,
          31674,
          32031,
          31988,
          32302,
          32136,
          31581,
          32184,
          31879,
          31847,
          31570,
          31810,
          31769,
          31672,
          31823,
          32016,
          32029,
          32367,
          32277,
          32207,
          31983,
          31623,
          32173,
          32107,
          31612,
          31598,
          31807,
          32015,
          31519,
          31502,
          32336,
          31634,
          31779,
          31533,
          31605,
          32186,
          31441,
          31671,
          32043,
          31998,
          31678,
          31949,
          32304,
          31505,
          31687,
          32024,
          32377,
          32145,
          32083,
          31733,
          31394,
          31954,
          32406,
          32099,
          32072,
          31693,
          31735,
          31983,
          31877,
          31707,
          31982,
