{
  "aor": 0.0005186910994764398,
  "aqi": 0.004712379214659686,
  "bids_meta": {
    "AcquisitionMatrixPE": 104,
    "AcquisitionNumber": 1,
    "AcquisitionTime": "16:07:49.477500",
    "BandwidthPerPixelPhaseEncode": 16.578,
    "BaseResolution": 104,
    "BodyPartExamined": "BRAIN",
    "CogAtlasID": "TODO",
    "ConsistencyInfo": "N4_VE11C_LATEST_20160120",
    "ConversionSoftware": "dcm2niix",
    "ConversionSoftwareVersion": "v1.0.20190902",
    "DerivedVendorReportedEchoSpacing": 0.000580009,
    "DeviceSerialNumber": "166018",
    "DwellTime": 2.1e-06,
    "EchoTime": 0.037,
    "EchoTrainLength": 104,
    "EffectiveEchoSpacing": 0.000580009,
    "FlipAngle": 68,
    "ImageComments": "Unaliased_MB6_PE3_LB",
    "ImageOrientationPatientDICOM": [
      0.998521,
      -0.0247588,
      0.048393,
      0.0415013,
      0.922188,
      -0.38451
    ],
    "ImageType": [
      "ORIGINAL",
      "PRIMARY",
      "M",
      "MB",
      "ND",
      "MOSAIC"
    ],
    "ImagingFrequency": 123.191,
    "InPlanePhaseEncodingDirectionDICOM": "COL",
    "InstitutionAddress": "Washington_Place_6_NYC_NYC_US_10003",
    "InstitutionName": "NYU_-_CBI",
    "InstitutionalDepartmentName": "Department",
    "MRAcquisitionType": "2D",
    "MagneticFieldStrength": 3,
    "Manufacturer": "Siemens",
    "ManufacturersModelName": "Prisma",
    "Modality": "MR",
    "MultibandAccelerationFactor": 6,
    "NumberOfVolumes": 192,
    "PartialFourier": 1,
    "PatientPosition": "HFS",
    "PercentPhaseFOV": 100,
    "PhaseEncodingDirection": "j",
    "PhaseEncodingSteps": 104,
    "PhaseResolution": 1,
    "PixelBandwidth": 2290,
    "ProcedureStepDescription": "Investigators_Winawer",
    "ProtocolName": "cmrr_mbepi_s6_2mm_66sl_PA_TR1.0",
    "PulseSequenceDetails": "%CustomerSeq%_cmrr_mbep2d_bold",
    "ReceiveCoilActiveElements": "HC1-7",
    "ReceiveCoilName": "HeadNeck_64",
    "ReconMatrixPE": 104,
    "RepetitionTime": 1,
    "SAR": 0.065334,
    "ScanOptions": "FS",
    "ScanningSequence": "EP",
    "SequenceName": "epfid2d1_104",
    "SequenceVariant": "SK_SS",
    "SeriesDescription": "cmrr_mbepi_s6_2mm_66sl_PA_TR1.0",
    "SeriesNumber": 20,
    "ShimSetting": [
      261,
      -12580,
      -8459,
      482,
      6,
      -143,
      -82,
      -33
    ],
    "SliceThickness": 2,
    "SliceTiming": [
      0,
      0.535,
      0.09,
      0.625,
      0.1775,
      0.7125,
      0.2675,
      0.8025,
      0.3575,
      0.89,
      0.445,
      0,
      0.535,
      0.09,
      0.625,
      0.1775,
      0.7125,
      0.2675,
      0.8025,
      0.3575,
      0.89,
      0.445,
      0,
      0.535,
      0.09,
      0.625,
      0.1775,
      0.7125,
      0.2675,
      0.8025,
      0.3575,
      0.89,
      0.445,
      0,
      0.535,
      0.09,
      0.625,
      0.1775,
      0.7125,
      0.2675,
      0.8025,
      0.3575,
      0.89,
      0.445,
      0,
      0.535,
      0.09,
      0.625,
      0.1775,
      0.7125,
      0.2675,
      0.8025,
      0.3575,
      0.89,
      0.445,
      0,
      0.535,
      0.09,
      0.625,
      0.1775,
      0.7125,
      0.2675,
      0.8025,
      0.3575,
      0.89,
      0.445
    ],
    "SoftwareVersions": "syngo_MR_E11",
    "SpacingBetweenSlices": 2,
    "StationName": "AWP166018",
    "TaskName": "prf",
    "TotalReadoutTime": 0.0597409,
    "TxRefAmp": 234.373,
    "WipMemBlock": "f00b4274-79a4-428b-adfe-eeddc02bcf75||Sequence: ve11c/master r/ab69a6c; Apr 19 2017 09:47:47 by eja",
    "acq_id": "PA",
    "dataset": "unknown",
    "dcmmeta_affine": [
      [
        -1.9970428943634033,
        0.0830025002360344,
        0.0702148973941803,
        110.34679412841797
      ],
      [
        0.049517672508955,
        1.8443751335144043,
        -0.7718992829322815,
        -64.71625518798828
      ],
      [
        0.09678608924150467,
        0.7690195441246033,
        1.843703269958496,
        -96.47901916503906
      ],
      [
        0.0,
        0.0,
        0.0,
        1.0
      ]
    ],
    "dcmmeta_reorient_transform": [
      [
        0.0,
        -1.0,
        0.0,
        103.0
      ],
      [
        1.0,
        0.0,
        0.0,
        0.0
      ],
      [
        0.0,
        0.0,
        1.0,
        0.0
      ],
      [
        0.0,
        0.0,
        0.0,
        1.0
      ]
    ],
    "dcmmeta_shape": [
      104,
      104,
      66,
      192
    ],
    "dcmmeta_slice_dim": 2,
    "dcmmeta_version": 0.6,
    "global": {
      "const": {
        "AccessionNumber": "j6wepnxe",
        "AcquisitionMatrix": [
          104,
          0,
          0,
          104
        ],
        "AngioFlag": "N",
        "BitsAllocated": 16,
        "BitsStored": 16,
        "BodyPartExamined": "BRAIN",
        "Columns": 936,
        "EchoNumbers": 1,
        "EchoTime": 37.0,
        "EchoTrainLength": 104,
        "FlipAngle": 68.0,
        "HighBit": 15,
        "ImageOrientationPatient": [
          0.99852146361479,
          -0.0247588370637,
          0.04839304379581,
          0.04150125035507,
          0.9221875559071,
          -0.3845097631388
        ],
        "ImagePositionPatient": [
          -984.19494958396,
          -871.91507572875,
          262.37910260703
        ],
        "ImageType": [
          "ORIGINAL",
          "PRIMARY",
          "M",
          "MB",
          "ND",
          "MOSAIC"
        ],
        "ImagedNucleus": "1H",
        "ImagingFrequency": 123.191345,
        "InPlanePhaseEncodingDirection": "COL",
        "MRAcquisitionType": "2D",
        "MagneticFieldStrength": 3.0,
        "Manufacturer": "SIEMENS",
        "ManufacturerModelName": "Prisma",
        "Modality": "MR",
        "NumberOfAverages": 1.0,
        "NumberOfPhaseEncodingSteps": 104,
        "PercentPhaseFieldOfView": 100.0,
        "PercentSampling": 100.0,
        "PerformedProcedureStepStartTime": "154117.736000",
        "PhotometricInterpretation": "MONOCHROME2",
        "PixelBandwidth": 2290.0,
        "PixelRepresentation": 0,
        "PixelSpacing": [
          2.0,
          2.0
        ],
        "ProtocolName": "cmrr_mbepi_s6_2mm_66sl_PA_TR1.0",
        "RepetitionTime": 1000.0,
        "Rows": 936,
        "SAR": 0.06533400942532,
        "SamplesPerPixel": 1,
        "ScanOptions": "FS",
        "ScanningSequence": "EP",
        "SequenceName": "epfid2d1_104",
        "SequenceVariant": [
          "SK",
          "SS"
        ],
        "SeriesDescription": "cmrr_mbepi_s6_2mm_66sl_PA_TR1.0",
        "SeriesNumber": 20,
        "SeriesTime": "160858.477000",
        "SliceLocation": -60.088128683745,
        "SliceThickness": 2.0,
        "SmallestImagePixelValue": 0,
        "SoftwareVersions": "syngo MR E11",
        "SpacingBetweenSlices": 2.0000000486852,
        "SpecificCharacterSet": "ISO_IR 100",
        "StudyID": "1",
        "StudyTime": "154117.674000",
        "TransmitCoilName": "Body",
        "VariableFlipAngleFlag": "N",
        "WindowCenterWidthExplanation": "Algo1",
        "dBdt": 0.0
      },
      "slices": {}
    },
    "modality": "bold",
    "run_id": 6,
    "session_id": "nyu3t01",
    "subject_id": "wlsubj043",
    "task_id": "prf",
    "time": {
      "samples": {
        "AcquisitionNumber": [
          1,
          2,
          3,
          4,
          5,
          6,
          7,
          8,
          9,
          10,
          11,
          12,
          13,
          14,
          15,
          16,
          17,
          18,
          19,
          20,
          21,
          22,
          23,
          24,
          25,
          26,
          27,
          28,
          29,
          30,
          31,
          32,
          33,
          34,
          35,
          36,
          37,
          38,
          39,
          40,
          41,
          42,
          43,
          44,
          45,
          46,
          47,
          48,
          49,
          50,
          51,
          52,
          53,
          54,
          55,
          56,
          57,
          58,
          59,
          60,
          61,
          62,
          63,
          64,
          65,
          66,
          67,
          68,
          69,
          70,
          71,
          72,
          73,
          74,
          75,
          76,
          77,
          78,
          79,
          80,
          81,
          82,
          83,
          84,
          85,
          86,
          87,
          88,
          89,
          90,
          91,
          92,
          93,
          94,
          95,
          96,
          97,
          98,
          99,
          100,
          101,
          102,
          103,
          104,
          105,
          106,
          107,
          108,
          109,
          110,
          111,
          112,
          113,
          114,
          115,
          116,
          117,
          118,
          119,
          120,
          121,
          122,
          123,
          124,
          125,
          126,
          127,
          128,
          129,
          130,
          131,
          132,
          133,
          134,
          135,
          136,
          137,
          138,
          139,
          140,
          141,
          142,
          143,
          144,
          145,
          146,
          147,
          148,
          149,
          150,
          151,
          152,
          153,
          154,
          155,
          156,
          157,
          158,
          159,
          160,
          161,
          162,
          163,
          164,
          165,
          166,
          167,
          168,
          169,
          170,
          171,
          172,
          173,
          174,
          175,
          176,
          177,
          178,
          179,
          180,
          181,
          182,
          183,
          184,
          185,
          186,
          187,
          188,
          189,
          190,
          191,
          192
        ],
        "AcquisitionTime": [
          "160749.477500",
          "160750.477500",
          "160751.477500",
          "160752.477500",
          "160753.477500",
          "160754.477500",
          "160755.477500",
          "160756.477500",
          "160757.477500",
          "160758.477500",
          "160759.477500",
          "160800.477500",
          "160801.477500",
          "160802.477500",
          "160803.477500",
          "160804.477500",
          "160805.477500",
          "160806.477500",
          "160807.477500",
          "160808.477500",
          "160809.477500",
          "160810.477500",
          "160811.477500",
          "160812.477500",
          "160813.477500",
          "160814.477500",
          "160815.477500",
          "160816.477500",
          "160817.477500",
          "160818.477500",
          "160819.477500",
          "160820.477500",
          "160821.477500",
          "160822.477500",
          "160823.477500",
          "160824.477500",
          "160825.477500",
          "160826.477500",
          "160827.477500",
          "160828.477500",
          "160829.477500",
          "160830.477500",
          "160831.477500",
          "160832.477500",
          "160833.477500",
          "160834.477500",
          "160835.477500",
          "160836.477500",
          "160837.477500",
          "160838.477500",
          "160839.477500",
          "160840.477500",
          "160841.477500",
          "160842.477500",
          "160843.477500",
          "160844.477500",
          "160845.477500",
          "160846.477500",
          "160847.477500",
          "160848.477500",
          "160849.477500",
          "160850.477500",
          "160851.477500",
          "160852.477500",
          "160853.477500",
          "160854.477500",
          "160855.477500",
          "160856.477500",
          "160857.477500",
          "160858.477500",
          "160859.477500",
          "160900.477500",
          "160901.477500",
          "160902.477500",
          "160903.477500",
          "160904.477500",
          "160905.477500",
          "160906.477500",
          "160907.477500",
          "160908.477500",
          "160909.477500",
          "160910.477500",
          "160911.477500",
          "160912.477500",
          "160913.477500",
          "160914.477500",
          "160915.477500",
          "160916.477500",
          "160917.477500",
          "160918.477500",
          "160919.477500",
          "160920.477500",
          "160921.477500",
          "160922.477500",
          "160923.477500",
          "160924.477500",
          "160925.477500",
          "160926.477500",
          "160927.477500",
          "160928.477500",
          "160929.477500",
          "160930.477500",
          "160931.477500",
          "160932.477500",
          "160933.477500",
          "160934.477500",
          "160935.477500",
          "160936.477500",
          "160937.477500",
          "160938.477500",
          "160939.477500",
          "160940.477500",
          "160941.477500",
          "160942.477500",
          "160943.477500",
          "160944.477500",
          "160945.477500",
          "160946.477500",
          "160947.477500",
          "160948.477500",
          "160949.477500",
          "160950.477500",
          "160951.477500",
          "160952.477500",
          "160953.477500",
          "160954.477500",
          "160955.477500",
          "160956.477500",
          "160957.477500",
          "160958.477500",
          "160959.477500",
          "161000.477500",
          "161001.477500",
          "161002.477500",
          "161003.477500",
          "161004.477500",
          "161005.477500",
          "161006.477500",
          "161007.477500",
          "161008.477500",
          "161009.477500",
          "161010.477500",
          "161011.477500",
          "161012.477500",
          "161013.477500",
          "161014.477500",
          "161015.477500",
          "161016.477500",
          "161017.477500",
          "161018.477500",
          "161019.477500",
          "161020.477500",
          "161021.477500",
          "161022.477500",
          "161023.477500",
          "161024.477500",
          "161025.477500",
          "161026.477500",
          "161027.477500",
          "161028.477500",
          "161029.477500",
          "161030.477500",
          "161031.477500",
          "161032.477500",
          "161033.477500",
          "161034.477500",
          "161035.477500",
          "161036.477500",
          "161037.477500",
          "161038.477500",
          "161039.477500",
          "161040.477500",
          "161041.477500",
          "161042.477500",
          "161043.477500",
          "161044.477500",
          "161045.477500",
          "161046.477500",
          "161047.477500",
          "161048.477500",
          "161049.477500",
          "161050.477500",
          "161051.477500",
          "161052.477500",
          "161053.477500",
          "161054.477500",
          "161055.477500",
          "161056.477500",
          "161057.477500",
          "161058.477500",
          "161059.477500",
          "161100.477500"
        ],
        "ContentTime": [
          "160858.480000",
          "160858.484000",
          "160858.487000",
          "160858.490000",
          "160858.493000",
          "160858.496000",
          "160858.499000",
          "160858.502000",
          "160858.511000",
          "160858.514000",
          "160858.517000",
          "160858.520000",
          "160858.523000",
          "160858.526000",
          "160858.529000",
          "160858.532000",
          "160858.535000",
          "160858.538000",
          "160858.541000",
          "160858.544000",
          "160858.547000",
          "160858.550000",
          "160858.553000",
          "160858.556000",
          "160858.559000",
          "160858.562000",
          "160858.565000",
          "160918.449000",
          "160918.455000",
          "160918.458000",
          "160918.461000",
          "160918.464000",
          "160918.467000",
          "160918.470000",
          "160918.473000",
          "160918.476000",
          "160918.479000",
          "160918.482000",
          "160918.485000",
          "160918.488000",
          "160918.491000",
          "160918.494000",
          "160918.497000",
          "160918.500000",
          "160918.503000",
          "160918.506000",
          "160918.509000",
          "160918.512000",
          "160918.515000",
          "160918.518000",
          "160918.521000",
          "160918.524000",
          "160918.527000",
          "160918.530000",
          "160918.538000",
          "160938.449000",
          "160938.452000",
          "160938.455000",
          "160938.458000",
          "160938.461000",
          "160938.464000",
          "160938.467000",
          "160938.470000",
          "160938.473000",
          "160938.476000",
          "160938.479000",
          "160938.482000",
          "160938.485000",
          "160938.488000",
          "160938.498000",
          "160938.501000",
          "160938.504000",
          "160938.507000",
          "160938.510000",
          "160938.513000",
          "160938.516000",
          "160938.519000",
          "160938.522000",
          "160938.527000",
          "160938.530000",
          "160938.533000",
          "160938.537000",
          "160938.540000",
          "160958.449000",
          "160958.452000",
          "160958.455000",
          "160958.458000",
          "160958.461000",
          "160958.464000",
          "160958.467000",
          "160958.470000",
          "160958.473000",
          "160958.476000",
          "160958.479000",
          "160958.482000",
          "160958.485000",
          "160958.488000",
          "160958.491000",
          "160958.495000",
          "160958.498000",
          "160958.502000",
          "160958.505000",
          "160958.508000",
          "160958.511000",
          "160958.530000",
          "160958.533000",
          "160958.536000",
          "160958.539000",
          "160958.542000",
          "160958.546000",
          "160958.549000",
          "161018.450000",
          "161018.453000",
          "161018.456000",
          "161018.459000",
          "161018.462000",
          "161018.465000",
          "161018.468000",
          "161018.471000",
          "161018.474000",
          "161018.477000",
          "161018.480000",
          "161018.483000",
          "161018.486000",
          "161018.489000",
          "161018.492000",
          "161018.495000",
          "161018.498000",
          "161018.501000",
          "161018.504000",
          "161018.507000",
          "161018.510000",
          "161018.513000",
          "161018.516000",
          "161018.519000",
          "161018.522000",
          "161018.525000",
          "161018.528000",
          "161018.531000",
          "161018.534000",
          "161038.450000",
          "161038.453000",
          "161038.456000",
          "161038.459000",
          "161038.462000",
          "161038.465000",
          "161038.468000",
          "161038.471000",
          "161038.474000",
          "161038.477000",
          "161038.480000",
          "161038.483000",
          "161038.486000",
          "161038.489000",
          "161038.492000",
          "161038.495000",
          "161038.498000",
          "161038.502000",
          "161038.512000",
          "161038.515000",
          "161038.518000",
          "161038.521000",
          "161038.524000",
          "161038.527000",
          "161038.530000",
          "161038.533000",
          "161038.536000",
          "161038.539000",
          "161058.449000",
          "161058.452000",
          "161058.455000",
          "161058.458000",
          "161058.461000",
          "161058.465000",
          "161058.468000",
          "161058.471000",
          "161058.474000",
          "161058.477000",
          "161058.480000",
          "161058.483000",
          "161058.486000",
          "161058.489000",
          "161058.492000",
          "161058.495000",
          "161058.498000",
          "161058.501000",
          "161058.504000",
          "161058.507000",
          "161102.387000",
          "161102.391000",
          "161102.394000",
          "161102.397000"
        ],
        "InstanceCreationTime": [
          "160858.480000",
          "160858.484000",
          "160858.487000",
          "160858.490000",
          "160858.493000",
          "160858.496000",
          "160858.499000",
          "160858.502000",
          "160858.511000",
          "160858.514000",
          "160858.517000",
          "160858.520000",
          "160858.523000",
          "160858.526000",
          "160858.529000",
          "160858.532000",
          "160858.535000",
          "160858.538000",
          "160858.541000",
          "160858.544000",
          "160858.547000",
          "160858.550000",
          "160858.553000",
          "160858.556000",
          "160858.559000",
          "160858.562000",
          "160858.565000",
          "160918.449000",
          "160918.455000",
          "160918.458000",
          "160918.461000",
          "160918.464000",
          "160918.467000",
          "160918.470000",
          "160918.473000",
          "160918.476000",
          "160918.479000",
          "160918.482000",
          "160918.485000",
          "160918.488000",
          "160918.491000",
          "160918.494000",
          "160918.497000",
          "160918.500000",
          "160918.503000",
          "160918.506000",
          "160918.509000",
          "160918.512000",
          "160918.515000",
          "160918.518000",
          "160918.521000",
          "160918.524000",
          "160918.527000",
          "160918.530000",
          "160918.538000",
          "160938.449000",
          "160938.452000",
          "160938.455000",
          "160938.458000",
          "160938.461000",
          "160938.464000",
          "160938.467000",
          "160938.470000",
          "160938.473000",
          "160938.476000",
          "160938.479000",
          "160938.482000",
          "160938.485000",
          "160938.488000",
          "160938.498000",
          "160938.501000",
          "160938.504000",
          "160938.507000",
          "160938.510000",
          "160938.513000",
          "160938.516000",
          "160938.519000",
          "160938.522000",
          "160938.527000",
          "160938.530000",
          "160938.533000",
          "160938.537000",
          "160938.540000",
          "160958.449000",
          "160958.452000",
          "160958.455000",
          "160958.458000",
          "160958.461000",
          "160958.464000",
          "160958.467000",
          "160958.470000",
          "160958.473000",
          "160958.476000",
          "160958.479000",
          "160958.482000",
          "160958.485000",
          "160958.488000",
          "160958.491000",
          "160958.495000",
          "160958.498000",
          "160958.502000",
          "160958.505000",
          "160958.508000",
          "160958.511000",
          "160958.530000",
          "160958.533000",
          "160958.536000",
          "160958.539000",
          "160958.542000",
          "160958.546000",
          "160958.549000",
          "161018.450000",
          "161018.453000",
          "161018.456000",
          "161018.459000",
          "161018.462000",
          "161018.465000",
          "161018.468000",
          "161018.471000",
          "161018.474000",
          "161018.477000",
          "161018.480000",
          "161018.483000",
          "161018.486000",
          "161018.489000",
          "161018.492000",
          "161018.495000",
          "161018.498000",
          "161018.501000",
          "161018.504000",
          "161018.507000",
          "161018.510000",
          "161018.513000",
          "161018.516000",
          "161018.519000",
          "161018.522000",
          "161018.525000",
          "161018.528000",
          "161018.531000",
          "161018.534000",
          "161038.450000",
          "161038.453000",
          "161038.456000",
          "161038.459000",
          "161038.462000",
          "161038.465000",
          "161038.468000",
          "161038.471000",
          "161038.474000",
          "161038.477000",
          "161038.480000",
          "161038.483000",
          "161038.486000",
          "161038.489000",
          "161038.492000",
          "161038.495000",
          "161038.498000",
          "161038.502000",
          "161038.512000",
          "161038.515000",
          "161038.518000",
          "161038.521000",
          "161038.524000",
          "161038.527000",
          "161038.530000",
          "161038.533000",
          "161038.536000",
          "161038.539000",
          "161058.449000",
          "161058.452000",
          "161058.455000",
          "161058.458000",
          "161058.461000",
          "161058.465000",
          "161058.468000",
          "161058.471000",
          "161058.474000",
          "161058.477000",
          "161058.480000",
          "161058.483000",
          "161058.486000",
          "161058.489000",
          "161058.492000",
          "161058.495000",
          "161058.498000",
          "161058.501000",
          "161058.504000",
          "161058.507000",
          "161102.387000",
          "161102.391000",
          "161102.394000",
          "161102.397000"
        ],
        "InstanceNumber": [
          1,
          2,
          3,
          4,
          5,
          6,
          7,
          8,
          9,
          10,
          11,
          12,
          13,
          14,
          15,
          16,
          17,
          18,
          19,
          20,
          21,
          22,
          23,
          24,
          25,
          26,
          27,
          28,
          29,
          30,
          31,
          32,
          33,
          34,
          35,
          36,
          37,
          38,
          39,
          40,
          41,
          42,
          43,
          44,
          45,
          46,
          47,
          48,
          49,
          50,
          51,
          52,
          53,
          54,
          55,
          56,
          57,
          58,
          59,
          60,
          61,
          62,
          63,
          64,
          65,
          66,
          67,
          68,
          69,
          70,
          71,
          72,
          73,
          74,
          75,
          76,
          77,
          78,
          79,
          80,
          81,
          82,
          83,
          84,
          85,
          86,
          87,
          88,
          89,
          90,
          91,
          92,
          93,
          94,
          95,
          96,
          97,
          98,
          99,
          100,
          101,
          102,
          103,
          104,
          105,
          106,
          107,
          108,
          109,
          110,
          111,
          112,
          113,
          114,
          115,
          116,
          117,
          118,
          119,
          120,
          121,
          122,
          123,
          124,
          125,
          126,
          127,
          128,
          129,
          130,
          131,
          132,
          133,
          134,
          135,
          136,
          137,
          138,
          139,
          140,
          141,
          142,
          143,
          144,
          145,
          146,
          147,
          148,
          149,
          150,
          151,
          152,
          153,
          154,
          155,
          156,
          157,
          158,
          159,
          160,
          161,
          162,
          163,
          164,
          165,
          166,
          167,
          168,
          169,
          170,
          171,
          172,
          173,
          174,
          175,
          176,
          177,
          178,
          179,
          180,
          181,
          182,
          183,
          184,
          185,
          186,
          187,
          188,
          189,
          190,
          191,
          192
        ],
        "LargestImagePixelValue": [
          33501,
          31891,
          31683,
          32159,
          33688,
          31574,
          31423,
          32671,
          32272,
          32034,
          31442,
          32143,
          32385,
          33087,
          31535,
          31421,
          33750,
          31788,
          33933,
          31097,
          37521,
          32964,
          31642,
          32191,
          31413,
          33698,
          33589,
          33012,
          31712,
          33014,
          31120,
          37826,
          31697,
          31910,
          32419,
          33365,
          31291,
          31284,
          31604,
          31778,
          31119,
          31234,
          31541,
          31345,
          32787,
          31425,
          32608,
          31607,
          34530,
          31230,
          32644,
          31385,
          31188,
          31658,
          31804,
          31346,
          33067,
          31660,
          34317,
          31000,
          34085,
          31984,
          31874,
          31588,
          33763,
          31061,
          31493,
          31238,
          33819,
          32158,
          31260,
          31016,
          31215,
          32811,
          31822,
          31515,
          31522,
          31577,
          32089,
          31670,
          31385,
          31410,
          31270,
          31930,
