{
  "AcquisitionMatrixPE": 104,
  "AcquisitionNumber": 1,
  "AcquisitionTime": "09:31:14.465000",
  "BandwidthPerPixelPhaseEncode": 16.578,
  "BaseResolution": 104,
  "BodyPartExamined": "BRAIN",
  "ConsistencyInfo": "N4_VE11C_LATEST_20160120",
  "ConversionSoftware": "dcm2niix",
  "ConversionSoftwareVersion": "v1.0.20190902",
  "DerivedVendorReportedEchoSpacing": 0.000580009,
  "DeviceSerialNumber": "166018",
  "DwellTime": 2.1e-06,
  "EchoTime": 0.037,
  "EchoTrainLength": 104,
  "EffectiveEchoSpacing": 0.000580009,
  "FlipAngle": 68,
  "ImageComments": "Unaliased_MB6_PE3_LB",
  "ImageOrientationPatientDICOM": [0.997174, 0.0683814, -0.0311172, -0.0727029, 0.982713, -0.170265],
  "ImageType": [
    "ORIGINAL",
    "PRIMARY",
    "M",
    "MB",
    "ND",
    "MOSAIC"
],
  "ImagingFrequency": 123.191,
  "InPlanePhaseEncodingDirectionDICOM": "COL",
  "InstitutionAddress": "Washington_Place_6_NYC_NYC_US_10003",
  "InstitutionName": "NYU_-_CBI",
  "InstitutionalDepartmentName": "Department",
  "MRAcquisitionType": "2D",
  "MagneticFieldStrength": 3,
  "Manufacturer": "Siemens",
  "ManufacturersModelName": "Prisma",
  "Modality": "MR",
  "MultibandAccelerationFactor": 6,
  "PartialFourier": 1,
  "PatientPosition": "HFS",
  "PercentPhaseFOV": 100,
  "PhaseEncodingDirection": "j",
  "PhaseEncodingSteps": 104,
  "PhaseResolution": 1,
  "PixelBandwidth": 2290,
  "ProcedureStepDescription": "Investigators_Winawer",
  "ProtocolName": "cmrr_mbepi_s6_2mm_66sl_PA_task-prf",
  "PulseSequenceDetails": "%CustomerSeq%_cmrr_mbep2d_bold",
  "ReceiveCoilActiveElements": "HC1-7",
  "ReceiveCoilName": "HeadNeck_64",
  "ReconMatrixPE": 104,
  "RepetitionTime": 1,
  "SAR": 0.0743118,
  "ScanOptions": "FS",
  "ScanningSequence": "EP",
  "SequenceName": "epfid2d1_104",
  "SequenceVariant": "SK_SS",
  "SeriesDescription": "cmrr_mbepi_s6_2mm_66sl_PA_task-prf",
  "SeriesNumber": 12,
  "ShimSetting": [239, -12590, -8441, 448, -86, -143, -23, 47],
  "SliceThickness": 2,
  "SliceTiming": [0, 0.535, 0.09, 0.625, 0.18, 0.7125, 0.2675, 0.8025, 0.3575, 0.8925, 0.4475, 0, 0.535, 0.09, 0.625, 0.18, 0.7125, 0.2675, 0.8025, 0.3575, 0.8925, 0.4475, 0, 0.535, 0.09, 0.625, 0.18, 0.7125, 0.2675, 0.8025, 0.3575, 0.8925, 0.4475, 0, 0.535, 0.09, 0.625, 0.18, 0.7125, 0.2675, 0.8025, 0.3575, 0.8925, 0.4475, 0, 0.535, 0.09, 0.625, 0.18, 0.7125, 0.2675, 0.8025, 0.3575, 0.8925, 0.4475, 0, 0.535, 0.09, 0.625, 0.18, 0.7125, 0.2675, 0.8025, 0.3575, 0.8925, 0.4475],
  "SoftwareVersions": "syngo_MR_E11",
  "SpacingBetweenSlices": 2,
  "StationName": "AWP166018",
  "TaskName": "prf",
  "TotalReadoutTime": 0.0597409,
  "TxRefAmp": 227.081,
  "WipMemBlock": "4342feed-4587-4f7f-b07e-e251853eec8b||Sequence: R016 ve11c/master r/8780670; Nov 27 2017 15:05:12 by eja",
  "dcmmeta_affine": [
    [-1.9943476915359497, -0.1454058289527893, -0.037872642278671265, 115.68653869628906],
    [-0.1367628127336502, 1.9654252529144287, -0.3440922498703003, -69.1511001586914],
    [-0.06223443150520325, 0.34053000807762146, 1.9698138236999512, -57.85879135131836],
    [0.0, 0.0, 0.0, 1.0]
],
  "dcmmeta_reorient_transform": [
    [0.0, -1.0, 0.0, 103.0],
    [1.0, 0.0, 0.0, 0.0],
    [0.0, 0.0, 1.0, 0.0],
    [0.0, 0.0, 0.0, 1.0]
],
  "dcmmeta_shape": [104, 104, 66, 192],
  "dcmmeta_slice_dim": 2,
  "dcmmeta_version": 0.6,
  "global": {
    "const": {
      "AccessionNumber": "jur4wd1m",
      "AcquisitionMatrix": [104, 0, 0, 104],
      "AngioFlag": "N",
      "BitsAllocated": 16,
      "BitsStored": 16,
      "BodyPartExamined": "BRAIN",
      "Columns": 936,
      "EchoNumbers": 1,
      "EchoTime": 37.0,
      "EchoTrainLength": 104,
      "FlipAngle": 68.0,
      "HighBit": 15,
      "ImageOrientationPatient": [0.99717385749444, 0.06838140670034, -0.0311172162531, -0.0727029137918, 0.9827126310668, -0.1702650024754],
      "ImagePositionPatient": [-869.8695601759, -1007.7979439869, 144.76580567999],
      "ImageType": [
        "ORIGINAL",
        "PRIMARY",
        "M",
        "MB",
        "ND",
        "MOSAIC"
],
      "ImagedNucleus": "1H",
      "ImagingFrequency": 123.19105,
      "InPlanePhaseEncodingDirection": "COL",
      "MRAcquisitionType": "2D",
      "MagneticFieldStrength": 3.0,
      "Manufacturer": "SIEMENS",
      "ManufacturerModelName": "Prisma",
      "Modality": "MR",
      "NumberOfAverages": 1.0,
      "NumberOfPhaseEncodingSteps": 104,
      "PercentPhaseFieldOfView": 100.0,
      "PercentSampling": 100.0,
      "PerformedProcedureStepStartTime": "090429.769000",
      "PhotometricInterpretation": "MONOCHROME2",
      "PixelBandwidth": 2290.0,
      "PixelRepresentation": 0,
      "PixelSpacing": [2.0, 2.0],
      "ProtocolName": "cmrr_mbepi_s6_2mm_66sl_PA_task-prf",
      "RepetitionTime": 1000.0,
      "Rows": 936,
      "SAR": 0.07431180054154,
      "SamplesPerPixel": 1,
      "ScanOptions": "FS",
      "ScanningSequence": "EP",
      "SequenceName": "epfid2d1_104",
      "SequenceVariant": [
        "SK",
        "SS"
],
      "SeriesDescription": "cmrr_mbepi_s6_2mm_66sl_PA_task-prf",
      "SeriesNumber": 12,
      "SeriesTime": "093214.957000",
      "SliceLocation": -47.279019970817,
      "SliceThickness": 2.0,
      "SmallestImagePixelValue": 0,
      "SoftwareVersions": "syngo MR E11",
      "SpacingBetweenSlices": 2.0000000230754,
      "SpecificCharacterSet": "ISO_IR 100",
      "StudyID": "1",
      "StudyTime": "090429.665000",
      "TransmitCoilName": "Body",
      "VariableFlipAngleFlag": "N",
      "WindowCenterWidthExplanation": "Algo1",
      "dBdt": 0.0},
    "slices": {}
  },
  "time": {
    "samples": {
      "AcquisitionNumber": [1, 2, 3, 4, 5, 6, 7, 8, 9, 10, 11, 12, 13, 14, 15, 16, 17, 18, 19, 20, 21, 22, 23, 24, 25, 26, 27, 28, 29, 30, 31, 32, 33, 34, 35, 36, 37, 38, 39, 40, 41, 42, 43, 44, 45, 46, 47, 48, 49, 50, 51, 52, 53, 54, 55, 56, 57, 58, 59, 60, 61, 62, 63, 64, 65, 66, 67, 68, 69, 70, 71, 72, 73, 74, 75, 76, 77, 78, 79, 80, 81, 82, 83, 84, 85, 86, 87, 88, 89, 90, 91, 92, 93, 94, 95, 96, 97, 98, 99, 100, 101, 102, 103, 104, 105, 106, 107, 108, 109, 110, 111, 112, 113, 114, 115, 116, 117, 118, 119, 120, 121, 122, 123, 124, 125, 126, 127, 128, 129, 130, 131, 132, 133, 134, 135, 136, 137, 138, 139, 140, 141, 142, 143, 144, 145, 146, 147, 148, 149, 150, 151, 152, 153, 154, 155, 156, 157, 158, 159, 160, 161, 162, 163, 164, 165, 166, 167, 168, 169, 170, 171, 172, 173, 174, 175, 176, 177, 178, 179, 180, 181, 182, 183, 184, 185, 186, 187, 188, 189, 190, 191, 192],
      "AcquisitionTime": ["093114.465000", "093115.465000", "093116.465000", "093117.465000", "093118.465000", "093119.465000", "093120.465000", "093121.465000", "093122.465000", "093123.465000", "093124.465000", "093125.465000", "093126.465000", "093127.465000", "093128.465000", "093129.465000", "093130.465000", "093131.465000", "093132.465000", "093133.465000", "093134.465000", "093135.465000", "093136.465000", "093137.465000", "093138.465000", "093139.465000", "093140.465000", "093141.465000", "093142.465000", "093143.465000", "093144.465000", "093145.465000", "093146.465000", "093147.465000", "093148.465000", "093149.465000", "093150.465000", "093151.465000", "093152.465000", "093153.465000", "093154.465000", "093155.465000", "093156.465000", "093157.465000", "093158.465000", "093159.465000", "093200.465000", "093201.465000", "093202.465000", "093203.465000", "093204.465000", "093205.465000", "093206.465000", "093207.465000", "093208.465000", "093209.465000", "093210.465000", "093211.465000", "093212.465000", "093213.465000", "093214.465000", "093215.465000", "093216.465000", "093217.465000", "093218.465000", "093219.465000", "093220.465000", "093221.465000", "093222.465000", "093223.465000", "093224.465000", "093225.465000", "093226.465000", "093227.465000", "093228.465000", "093229.465000", "093230.465000", "093231.465000", "093232.465000", "093233.465000", "093234.465000", "093235.465000", "093236.465000", "093237.465000", "093238.465000", "093239.465000", "093240.465000", "093241.465000", "093242.465000", "093243.465000", "093244.465000", "093245.465000", "093246.465000", "093247.465000", "093248.465000", "093249.465000", "093250.465000", "093251.465000", "093252.465000", "093253.465000", "093254.465000", "093255.465000", "093256.465000", "093257.465000", "093258.465000", "093259.465000", "093300.465000", "093301.465000", "093302.465000", "093303.465000", "093304.465000", "093305.465000", "093306.465000", "093307.465000", "093308.465000", "093309.465000", "093310.465000", "093311.465000", "093312.465000", "093313.465000", "093314.465000", "093315.465000", "093316.465000", "093317.465000", "093318.465000", "093319.465000", "093320.465000", "093321.465000", "093322.465000", "093323.465000", "093324.465000", "093325.465000", "093326.465000", "093327.465000", "093328.465000", "093329.465000", "093330.465000", "093331.465000", "093332.465000", "093333.465000", "093334.465000", "093335.465000", "093336.465000", "093337.465000", "093338.465000", "093339.465000", "093340.465000", "093341.465000", "093342.465000", "093343.465000", "093344.465000", "093345.465000", "093346.465000", "093347.465000", "093348.465000", "093349.465000", "093350.465000", "093351.465000", "093352.465000", "093353.465000", "093354.465000", "093355.465000", "093356.465000", "093357.465000", "093358.465000", "093359.465000", "093400.465000", "093401.465000", "093402.465000", "093403.465000", "093404.465000", "093405.465000", "093406.465000", "093407.465000", "093408.465000", "093409.465000", "093410.465000", "093411.465000", "093412.465000", "093413.465000", "093414.465000", "093415.465000", "093416.465000", "093417.465000", "093418.465000", "093419.465000", "093420.465000", "093421.465000", "093422.465000", "093423.465000", "093424.465000", "093425.465000"],
      "ContentTime": ["093214.959000", "093214.963000", "093214.965000", "093214.968000", "093214.975000", "093214.978000", "093214.981000", "093219.958000", "093219.961000", "093219.964000", "093219.967000", "093219.969000", "093219.972000", "093219.975000", "093224.958000", "093224.961000", "093224.969000", "093224.972000", "093224.975000", "093224.978000", "093224.986000", "093229.958000", "093229.961000", "093229.964000", "093229.967000", "093229.970000", "093229.972000", "093229.975000", "093234.958000", "093234.961000", "093234.964000", "093234.967000", "093234.974000", "093234.977000", "093234.980000", "093239.958000", "093239.961000", "093239.964000", "093239.967000", "093239.969000", "093239.972000", "093239.975000", "093244.958000", "093244.961000", "093244.964000", "093244.967000", "093244.970000", "093244.973000", "093244.976000", "093249.958000", "093249.961000", "093249.969000", "093249.972000", "093249.975000", "093249.978000", "093249.980000", "093249.983000", "093254.958000", "093254.961000", "093254.964000", "093254.967000", "093254.969000", "093254.972000", "093254.975000", "093259.958000", "093259.961000", "093259.964000", "093259.967000", "093259.969000", "093259.972000", "093259.975000", "093304.958000", "093304.961000", "093304.964000", "093304.967000", "093304.970000", "093304.973000", "093304.975000", "093309.958000", "093309.961000", "093309.964000", "093309.967000", "093309.970000", "093309.972000", "093309.975000", "093314.958000", "093314.961000", "093314.964000", "093314.967000", "093314.970000", "093314.973000", "093314.975000", "093319.958000", "093319.961000", "093319.964000", "093319.967000", "093319.970000", "093319.973000", "093319.976000", "093324.958000", "093324.961000", "093324.964000", "093324.967000", "093324.970000", "093324.972000", "093324.975000", "093329.958000", "093329.961000", "093329.964000", "093329.967000", "093329.970000", "093329.972000", "093329.975000", "093334.958000", "093334.961000", "093334.964000", "093334.967000", "093334.970000", "093334.972000", "093334.975000", "093339.958000", "093339.961000", "093339.964000", "093339.985000", "093339.988000", "093339.990000", "093339.993000", "093344.958000", "093344.961000", "093344.964000", "093344.967000", "093344.969000", "093344.972000", "093344.975000", "093344.978000", "093349.958000", "093349.961000", "093349.964000", "093349.967000", "093349.969000", "093349.972000", "093349.975000", "093354.958000", "093354.961000", "093354.964000", "093354.966000", "093354.969000", "093354.972000", "093354.975000", "093359.958000", "093359.961000", "093359.964000", "093359.967000", "093359.969000", "093359.972000", "093359.975000", "093404.958000", "093404.961000", "093404.964000", "093404.967000", "093404.970000", "093404.972000", "093404.975000", "093409.958000", "093409.961000", "093409.964000", "093409.967000", "093409.969000", "093409.972000", "093409.975000", "093414.958000", "093414.961000", "093414.964000", "093414.967000", "093414.970000", "093414.972000", "093414.975000", "093419.958000", "093419.961000", "093419.964000", "093419.967000", "093419.970000", "093419.973000", "093419.975000", "093424.958000", "093424.961000", "093424.964000", "093424.967000", "093424.970000", "093427.331000", "093427.334000", "093427.337000"],
      "InstanceCreationTime": ["093214.959000", "093214.963000", "093214.965000", "093214.968000", "093214.975000", "093214.978000", "093214.981000", "093219.958000", "093219.961000", "093219.964000", "093219.967000", "093219.969000", "093219.972000", "093219.975000", "093224.958000", "093224.961000", "093224.969000", "093224.972000", "093224.975000", "093224.978000", "093224.986000", "093229.958000", "093229.961000", "093229.964000", "093229.967000", "093229.970000", "093229.972000", "093229.975000", "093234.958000", "093234.961000", "093234.964000", "093234.967000", "093234.974000", "093234.977000", "093234.980000", "093239.958000", "093239.961000", "093239.964000", "093239.967000", "093239.969000", "093239.972000", "093239.975000", "093244.958000", "093244.961000", "093244.964000", "093244.967000", "093244.970000", "093244.973000", "093244.976000", "093249.958000", "093249.961000", "093249.969000", "093249.972000", "093249.975000", "093249.978000", "093249.980000", "093249.983000", "093254.958000", "093254.961000", "093254.964000", "093254.967000", "093254.969000", "093254.972000", "093254.975000", "093259.958000", "093259.961000", "093259.964000", "093259.967000", "093259.969000", "093259.972000", "093259.975000", "093304.958000", "093304.961000", "093304.964000", "093304.967000", "093304.970000", "093304.973000", "093304.975000", "093309.958000", "093309.961000", "093309.964000", "093309.967000", "093309.970000", "093309.972000", "093309.975000", "093314.958000", "093314.961000", "093314.964000", "093314.967000", "093314.970000", "093314.973000", "093314.975000", "093319.958000", "093319.961000", "093319.964000", "093319.967000", "093319.970000", "093319.973000", "093319.976000", "093324.958000", "093324.961000", "093324.964000", "093324.967000", "093324.970000", "093324.972000", "093324.975000", "093329.958000", "093329.961000", "093329.964000", "093329.967000", "093329.970000", "093329.972000", "093329.975000", "093334.958000", "093334.961000", "093334.964000", "093334.967000", "093334.970000", "093334.972000", "093334.975000", "093339.958000", "093339.961000", "093339.964000", "093339.985000", "093339.988000", "093339.990000", "093339.993000", "093344.958000", "093344.961000", "093344.964000", "093344.967000", "093344.969000", "093344.972000", "093344.975000", "093344.978000", "093349.958000", "093349.961000", "093349.964000", "093349.967000", "093349.969000", "093349.972000", "093349.975000", "093354.958000", "093354.961000", "093354.964000", "093354.966000", "093354.969000", "093354.972000", "093354.975000", "093359.958000", "093359.961000", "093359.964000", "093359.967000", "093359.969000", "093359.972000", "093359.975000", "093404.958000", "093404.961000", "093404.964000", "093404.967000", "093404.970000", "093404.972000", "093404.975000", "093409.958000", "093409.961000", "093409.964000", "093409.967000", "093409.969000", "093409.972000", "093409.975000", "093414.958000", "093414.961000", "093414.964000", "093414.967000", "093414.970000", "093414.972000", "093414.975000", "093419.958000", "093419.961000", "093419.964000", "093419.967000", "093419.970000", "093419.973000", "093419.975000", "093424.958000", "093424.961000", "093424.964000", "093424.967000", "093424.970000", "093427.331000", "093427.334000", "093427.337000"],
      "InstanceNumber": [1, 2, 3, 4, 5, 6, 7, 8, 9, 10, 11, 12, 13, 14, 15, 16, 17, 18, 19, 20, 21, 22, 23, 24, 25, 26, 27, 28, 29, 30, 31, 32, 33, 34, 35, 36, 37, 38, 39, 40, 41, 42, 43, 44, 45, 46, 47, 48, 49, 50, 51, 52, 53, 54, 55, 56, 57, 58, 59, 60, 61, 62, 63, 64, 65, 66, 67, 68, 69, 70, 71, 72, 73, 74, 75, 76, 77, 78, 79, 80, 81, 82, 83, 84, 85, 86, 87, 88, 89, 90, 91, 92, 93, 94, 95, 96, 97, 98, 99, 100, 101, 102, 103, 104, 105, 106, 107, 108, 109, 110, 111, 112, 113, 114, 115, 116, 117, 118, 119, 120, 121, 122, 123, 124, 125, 126, 127, 128, 129, 130, 131, 132, 133, 134, 135, 136, 137, 138, 139, 140, 141, 142, 143, 144, 145, 146, 147, 148, 149, 150, 151, 152, 153, 154, 155, 156, 157, 158, 159, 160, 161, 162, 163, 164, 165, 166, 167, 168, 169, 170, 171, 172, 173, 174, 175, 176, 177, 178, 179, 180, 181, 182, 183, 184, 185, 186, 187, 188, 189, 190, 191, 192],
      "LargestImagePixelValue": [32279, 31628, 31534, 31545, 31623, 30916, 31231, 31343, 31328, 31507, 31848, 31573, 31747, 31696, 32303, 32005, 31916, 32549, 32375, 32594, 32294, 32329, 31909, 32352, 32274, 31913, 32314, 32263, 32082, 32323, 32348, 32091, 32241, 33112, 32520, 32632, 32625, 32556, 33132, 32986, 32865, 32876, 32226, 31929, 32438, 32444, 32562, 32564, 32529, 32293, 32102, 32444, 32435, 32421, 32811, 32989, 32955, 32799, 33167, 32300, 33166, 33032, 32748, 33048, 33112, 32727, 33223, 33051, 32432, 32747, 32685, 32117, 32506, 32752, 32111, 32179, 32671, 32188, 32445, 32639, 32385, 32532, 32364, 32429, 31877, 32636, 33280, 32899, 32668, 32984, 32505, 32208, 31712, 31915, 32360, 31974, 31986, 32607, 32433, 32063, 32732, 32597, 31714, 32149, 32718, 32414, 32437, 33078, 32580, 32622, 32877, 32244, 32690, 32974, 32595, 32690, 32649, 32156, 31730, 32193, 32285, 32169, 32728, 32445, 31730, 32360, 32590, 32283, 32331, 32122, 32453, 32534, 32488, 32537, 32695, 32619, 32328, 32748, 32230, 31743, 31971, 32031, 31916, 32165, 32450, 31942, 32184, 32270, 32437, 32537, 32936, 32608, 32572, 32830, 32805, 32728, 32907, 32745, 32869, 32927, 32928, 32806, 33033, 32780, 32834, 32342, 32800, 32096, 32302, 32298, 32292, 32398, 32737, 32347, 32284, 32519, 32452, 32533, 32994, 32855, 32507, 33076, 32762, 32664, 32213, 32309, 32463, 32159, 32646, 32398, 32339, 32293],
      "WindowCenter": [10207.0, 10163.0, 10150.0, 10140.0, 10146.0, 10141.0, 10145.0, 10140.0, 10134.0, 10133.0, 10144.0, 10148.0, 10161.0, 10161.0, 10161.0, 10163.0, 10163.0, 10173.0, 10170.0, 10170.0, 10162.0, 10169.0, 10165.0, 10169.0, 10162.0, 10163.0, 10160.0, 10158.0, 10154.0, 10158.0, 10168.0, 10173.0, 10185.0, 10198.0, 10195.0, 10196.0, 10195.0, 10202.0, 10209.0, 10203.0, 10209.0, 10220.0, 10209.0, 10195.0, 10182.0, 10171.0, 10168.0, 10166.0, 10159.0, 10167.0, 10172.0, 10195.0, 10208.0, 10225.0, 10238.0, 10231.0, 10224.0, 10216.0, 10220.0, 10215.0, 10220.0, 10212.0, 10206.0, 10205.0, 10203.0, 10199.0, 10203.0, 10196.0, 10191.0, 10196.0, 10189.0, 10184.0, 10181.0, 10172.0, 10165.0, 10164.0, 10168.0, 10170.0, 10178.0, 10178.0, 10179.0, 10186.0, 10173.0, 10172.0, 10175.0, 10194.0, 10202.0, 10206.0, 10214.0, 10206.0, 10191.0, 10177.0, 10168.0, 10164.0, 10164.0, 10171.0, 10174.0, 10185.0, 10181.0, 10182.0, 10186.0, 10186.0, 10183.0, 10185.0, 10198.0, 10201.0, 10207.0, 10213.0, 10209.0, 10209.0, 10215.0, 10218.0, 10224.0, 10224.0, 10217.0, 10201.0, 10189.0, 10169.0, 10159.0, 10162.0, 10168.0, 10170.0, 10183.0, 10187.0, 10188.0, 10199.0, 10192.0, 10183.0, 10166.0, 10158.0, 10163.0, 10168.0, 10176.0, 10179.0, 10193.0, 10196.0, 10199.0, 10199.0, 10193.0, 10180.0, 10175.0, 10169.0, 10174.0, 10174.0, 10181.0, 10193.0, 10213.0, 10216.0, 10217.0, 10215.0, 10206.0, 10198.0, 10198.0, 10203.0, 10212.0, 10223.0, 10230.0, 10224.0, 10223.0, 10225.0, 10225.0, 10233.0, 10232.0, 10225.0, 10222.0, 10202.0, 10198.0, 10185.0, 10183.0, 10181.0, 10182.0, 10188.0, 10187.0, 10190.0, 10193.0, 10204.0, 10201.0, 10207.0, 10206.0, 10205.0, 10205.0, 10203.0, 10198.0, 10201.0, 10203.0, 10213.0, 10212.0, 10206.0, 10207.0, 10201.0, 10203.0, 10209.0],
      "WindowWidth": [21698.0, 21592.0, 21553.0, 21529.0, 21541.0, 21532.0, 21539.0, 21528.0, 21513.0, 21511.0, 21532.0, 21544.0, 21571.0, 21574.0, 21576.0, 21580.0, 21581.0, 21600.0, 21596.0, 21595.0, 21580.0, 21590.0, 21585.0, 21591.0, 21578.0, 21577.0, 21570.0, 21566.0, 21557.0, 21566.0, 21588.0, 21603.0, 21628.0, 21653.0, 21650.0, 21653.0, 21651.0, 21667.0, 21679.0, 21667.0, 21681.0, 21705.0, 21681.0, 21650.0, 21616.0, 21589.0, 21579.0, 21572.0, 21561.0, 21578.0, 21593.0, 21644.0, 21677.0, 21716.0, 21741.0, 21725.0, 21710.0, 21692.0, 21700.0, 21690.0, 21696.0, 21681.0, 21669.0, 21667.0, 21663.0, 21657.0, 21663.0, 21651.0, 21642.0, 21649.0, 21635.0, 21623.0, 21611.0, 21591.0, 21577.0, 21574.0, 21583.0, 21588.0, 21604.0, 21606.0, 21611.0, 21621.0, 21597.0, 21595.0, 21604.0, 21643.0, 21660.0, 21674.0, 21690.0, 21670.0, 21639.0, 21606.0, 21585.0, 21573.0, 21573.0, 21589.0, 21596.0, 21618.0, 21612.0, 21616.0, 21622.0, 21623.0, 21620.0, 21628.0, 21655.0, 21666.0, 21677.0, 21689.0, 21684.0, 21685.0, 21698.0, 21706.0, 21719.0, 21718.0, 21702.0, 21663.0, 21634.0, 21590.0, 21566.0, 21569.0, 21580.0, 21585.0, 21613.0, 21627.0, 21636.0, 21657.0, 21641.0, 21618.0, 21580.0, 21562.0, 21570.0, 21582.0, 21598.0, 21611.0, 21643.0, 21652.0, 21661.0, 21658.0, 21646.0, 21619.0, 21604.0, 21590.0, 21600.0, 21600.0, 21617.0, 21647.0, 21688.0, 21698.0, 21701.0, 21694.0, 21672.0, 21654.0, 21653.0, 21663.0, 21684.0, 21710.0, 21725.0, 21717.0, 21714.0, 21716.0, 21718.0, 21735.0, 21731.0, 21717.0, 21707.0, 21663.0, 21652.0, 21625.0, 21618.0, 21613.0, 21616.0, 21628.0, 21626.0, 21634.0, 21643.0, 21666.0, 21663.0, 21673.0, 21670.0, 21668.0, 21667.0, 21661.0, 21656.0, 21662.0, 21667.0, 21696.0, 21690.0, 21673.0, 21671.0, 21660.0, 21665.0, 21675.0]
    },
    "slices": {}
  },
  "NumberOfVolumes": 192
}