{
  "aor": 0.0005728421052631578,
  "aqi": 0.004192475263157895,
  "bids_meta": {
    "AcquisitionMatrixPE": 104,
    "AcquisitionNumber": 1,
    "AcquisitionTime": "16:09:27.062500",
    "BandwidthPerPixelPhaseEncode": 16.578,
    "BaseResolution": 104,
    "BodyPartExamined": "BRAIN",
    "CogAtlasID": "TODO",
    "ConsistencyInfo": "N4_VE11C_LATEST_20160120",
    "ConversionSoftware": "dcm2niix",
    "ConversionSoftwareVersion": "v1.0.20190902",
    "DerivedVendorReportedEchoSpacing": 0.000580009,
    "DeviceSerialNumber": "166018",
    "DwellTime": 2.1e-06,
    "EchoTime": 0.037,
    "EchoTrainLength": 104,
    "EffectiveEchoSpacing": 0.000580009,
    "FlipAngle": 68,
    "ImageComments": "Unaliased_MB6_PE3_LB",
    "ImageOrientationPatientDICOM": [
      0.998865,
      0.0428984,
      0.0206747,
      -0.0425635,
      0.99896,
      -0.0163773
    ],
    "ImageType": [
      "ORIGINAL",
      "PRIMARY",
      "M",
      "MB",
      "ND",
      "MOSAIC"
    ],
    "ImagingFrequency": 123.191,
    "InPlanePhaseEncodingDirectionDICOM": "COL",
    "InstitutionAddress": "Washington_Place_6_NYC_NYC_US_10003",
    "InstitutionName": "NYU_-_CBI",
    "InstitutionalDepartmentName": "Department",
    "MRAcquisitionType": "2D",
    "MagneticFieldStrength": 3,
    "Manufacturer": "Siemens",
    "ManufacturersModelName": "Prisma",
    "Modality": "MR",
    "MultibandAccelerationFactor": 6,
    "NumberOfVolumes": 192,
    "PartialFourier": 1,
    "PatientPosition": "HFS",
    "PercentPhaseFOV": 100,
    "PhaseEncodingDirection": "j",
    "PhaseEncodingSteps": 104,
    "PhaseResolution": 1,
    "PixelBandwidth": 2290,
    "ProcedureStepDescription": "Investigators_Winawer",
    "ProtocolName": "cmrr_mbepi_s6_2mm_66sl_PA_TR1.0",
    "PulseSequenceDetails": "%CustomerSeq%_cmrr_mbep2d_bold",
    "ReceiveCoilActiveElements": "HC1-7",
    "ReceiveCoilName": "HeadNeck_64",
    "ReconMatrixPE": 104,
    "RepetitionTime": 1,
    "SAR": 0.0673717,
    "ScanOptions": "FS",
    "ScanningSequence": "EP",
    "SequenceName": "epfid2d1_104",
    "SequenceVariant": "SK_SS",
    "SeriesDescription": "cmrr_mbepi_s6_2mm_66sl_PA_TR1.0",
    "SeriesNumber": 16,
    "ShimSetting": [
      277,
      -12571,
      -8534,
      278,
      -14,
      -5,
      51,
      -2
    ],
    "SliceThickness": 2,
    "SliceTiming": [
      0,
      0.535,
      0.09,
      0.625,
      0.1775,
      0.7125,
      0.2675,
      0.8025,
      0.3575,
      0.8925,
      0.445,
      0,
      0.535,
      0.09,
      0.625,
      0.1775,
      0.7125,
      0.2675,
      0.8025,
      0.3575,
      0.8925,
      0.445,
      0,
      0.535,
      0.09,
      0.625,
      0.1775,
      0.7125,
      0.2675,
      0.8025,
      0.3575,
      0.8925,
      0.445,
      0,
      0.535,
      0.09,
      0.625,
      0.1775,
      0.7125,
      0.2675,
      0.8025,
      0.3575,
      0.8925,
      0.445,
      0,
      0.535,
      0.09,
      0.625,
      0.1775,
      0.7125,
      0.2675,
      0.8025,
      0.3575,
      0.8925,
      0.445,
      0,
      0.535,
      0.09,
      0.625,
      0.1775,
      0.7125,
      0.2675,
      0.8025,
      0.3575,
      0.8925,
      0.445
    ],
    "SoftwareVersions": "syngo_MR_E11",
    "SpacingBetweenSlices": 2,
    "StationName": "AWP166018",
    "TaskName": "prf",
    "TotalReadoutTime": 0.0597409,
    "TxRefAmp": 205.563,
    "WipMemBlock": "150c3568-955a-40ef-80f2-fe7ba36ce4f8||Sequence: ve11c/master r/ab69a6c; Apr 19 2017 09:47:47 by eja",
    "acq_id": "PA",
    "dataset": "unknown",
    "dcmmeta_affine": [
      [
        -1.9977309703826904,
        -0.08512690663337708,
        0.0427115261554718,
        111.0504379272461
      ],
      [
        -0.0857967883348465,
        1.9979190826416016,
        -0.030957387760281563,
        -83.35585021972656
      ],
      [
        0.04134942963719368,
        0.03275452181696892,
        1.999304175376892,
        -41.87906265258789
      ],
      [
        0.0,
        0.0,
        0.0,
        1.0
      ]
    ],
    "dcmmeta_reorient_transform": [
      [
        0.0,
        -1.0,
        0.0,
        103.0
      ],
      [
        1.0,
        0.0,
        0.0,
        0.0
      ],
      [
        0.0,
        0.0,
        1.0,
        0.0
      ],
      [
        0.0,
        0.0,
        0.0,
        1.0
      ]
    ],
    "dcmmeta_shape": [
      104,
      104,
      66,
      192
    ],
    "dcmmeta_slice_dim": 2,
    "dcmmeta_version": 0.6,
    "global": {
      "const": {
        "AccessionNumber": "j9yLnzuo",
        "AcquisitionMatrix": [
          104,
          0,
          0,
          104
        ],
        "AngioFlag": "N",
        "BitsAllocated": 16,
        "BitsStored": 16,
        "BodyPartExamined": "BRAIN",
        "Columns": 936,
        "EchoNumbers": 1,
        "EchoTime": 37.0,
        "EchoTrainLength": 104,
        "FlipAngle": 68.0,
        "HighBit": 15,
        "ImageOrientationPatient": [
          0.99886549836743,
          0.04289839512642,
          0.02067471563915,
          -0.0425634536089,
          0.99895952756743,
          -0.0163772616497
        ],
        "ImagePositionPatient": [
          -897.92566420561,
          -989.25560713314,
          -42.080827578655
        ],
        "ImageType": [
          "ORIGINAL",
          "PRIMARY",
          "M",
          "MB",
          "ND",
          "MOSAIC"
        ],
        "ImagedNucleus": "1H",
        "ImagingFrequency": 123.191288,
        "InPlanePhaseEncodingDirection": "COL",
        "MRAcquisitionType": "2D",
        "MagneticFieldStrength": 3.0,
        "Manufacturer": "SIEMENS",
        "ManufacturerModelName": "Prisma",
        "Modality": "MR",
        "NumberOfAverages": 1.0,
        "NumberOfPhaseEncodingSteps": 104,
        "PercentPhaseFieldOfView": 100.0,
        "PercentSampling": 100.0,
        "PerformedProcedureStepStartTime": "153632.718000",
        "PhotometricInterpretation": "MONOCHROME2",
        "PixelBandwidth": 2290.0,
        "PixelRepresentation": 0,
        "PixelSpacing": [
          2.0,
          2.0
        ],
        "ProtocolName": "cmrr_mbepi_s6_2mm_66sl_PA_TR1.0",
        "RepetitionTime": 1000.0,
        "Rows": 936,
        "SAR": 0.06737168448902,
        "SamplesPerPixel": 1,
        "ScanOptions": "FS",
        "ScanningSequence": "EP",
        "SequenceName": "epfid2d1_104",
        "SequenceVariant": [
          "SK",
          "SS"
        ],
        "SeriesDescription": "cmrr_mbepi_s6_2mm_66sl_PA_TR1.0",
        "SeriesNumber": 16,
        "SeriesTime": "161039.659000",
        "SliceLocation": -38.202686089358,
        "SliceThickness": 2.0,
        "SmallestImagePixelValue": 0,
        "SoftwareVersions": "syngo MR E11",
        "SpacingBetweenSlices": 1.9999999787566,
        "SpecificCharacterSet": "ISO_IR 100",
        "StudyID": "1",
        "StudyTime": "153632.662000",
        "TransmitCoilName": "Body",
        "VariableFlipAngleFlag": "N",
        "WindowCenterWidthExplanation": "Algo1",
        "dBdt": 0.0
      },
      "slices": {}
    },
    "modality": "bold",
    "run_id": 4,
    "session_id": "nyu3t01",
    "subject_id": "wlsubj007",
    "task_id": "prf",
    "time": {
      "samples": {
        "AcquisitionNumber": [
          1,
          2,
          3,
          4,
          5,
          6,
          7,
          8,
          9,
          10,
          11,
          12,
          13,
          14,
          15,
          16,
          17,
          18,
          19,
          20,
          21,
          22,
          23,
          24,
          25,
          26,
          27,
          28,
          29,
          30,
          31,
          32,
          33,
          34,
          35,
          36,
          37,
          38,
          39,
          40,
          41,
          42,
          43,
          44,
          45,
          46,
          47,
          48,
          49,
          50,
          51,
          52,
          53,
          54,
          55,
          56,
          57,
          58,
          59,
          60,
          61,
          62,
          63,
          64,
          65,
          66,
          67,
          68,
          69,
          70,
          71,
          72,
          73,
          74,
          75,
          76,
          77,
          78,
          79,
          80,
          81,
          82,
          83,
          84,
          85,
          86,
          87,
          88,
          89,
          90,
          91,
          92,
          93,
          94,
          95,
          96,
          97,
          98,
          99,
          100,
          101,
          102,
          103,
          104,
          105,
          106,
          107,
          108,
          109,
          110,
          111,
          112,
          113,
          114,
          115,
          116,
          117,
          118,
          119,
          120,
          121,
          122,
          123,
          124,
          125,
          126,
          127,
          128,
          129,
          130,
          131,
          132,
          133,
          134,
          135,
          136,
          137,
          138,
          139,
          140,
          141,
          142,
          143,
          144,
          145,
          146,
          147,
          148,
          149,
          150,
          151,
          152,
          153,
          154,
          155,
          156,
          157,
          158,
          159,
          160,
          161,
          162,
          163,
          164,
          165,
          166,
          167,
          168,
          169,
          170,
          171,
          172,
          173,
          174,
          175,
          176,
          177,
          178,
          179,
          180,
          181,
          182,
          183,
          184,
          185,
          186,
          187,
          188,
          189,
          190,
          191,
          192
        ],
        "AcquisitionTime": [
          "160927.062500",
          "160928.062500",
          "160929.062500",
          "160930.062500",
          "160931.062500",
          "160932.062500",
          "160933.062500",
          "160934.062500",
          "160935.062500",
          "160936.062500",
          "160937.062500",
          "160938.062500",
          "160939.062500",
          "160940.062500",
          "160941.062500",
          "160942.062500",
          "160943.062500",
          "160944.062500",
          "160945.062500",
          "160946.062500",
          "160947.062500",
          "160948.062500",
          "160949.062500",
          "160950.062500",
          "160951.062500",
          "160952.062500",
          "160953.062500",
          "160954.062500",
          "160955.062500",
          "160956.062500",
          "160957.062500",
          "160958.062500",
          "160959.062500",
          "161000.062500",
          "161001.062500",
          "161002.062500",
          "161003.062500",
          "161004.062500",
          "161005.062500",
          "161006.062500",
          "161007.062500",
          "161008.062500",
          "161009.062500",
          "161010.062500",
          "161011.062500",
          "161012.062500",
          "161013.062500",
          "161014.062500",
          "161015.062500",
          "161016.062500",
          "161017.062500",
          "161018.062500",
          "161019.062500",
          "161020.062500",
          "161021.062500",
          "161022.062500",
          "161023.062500",
          "161024.062500",
          "161025.062500",
          "161026.062500",
          "161027.062500",
          "161028.062500",
          "161029.062500",
          "161030.062500",
          "161031.062500",
          "161032.062500",
          "161033.062500",
          "161034.062500",
          "161035.062500",
          "161036.062500",
          "161037.062500",
          "161038.062500",
          "161039.062500",
          "161040.062500",
          "161041.062500",
          "161042.062500",
          "161043.062500",
          "161044.062500",
          "161045.062500",
          "161046.062500",
          "161047.062500",
          "161048.062500",
          "161049.062500",
          "161050.062500",
          "161051.062500",
          "161052.062500",
          "161053.062500",
          "161054.062500",
          "161055.062500",
          "161056.062500",
          "161057.062500",
          "161058.062500",
          "161059.062500",
          "161100.062500",
          "161101.062500",
          "161102.062500",
          "161103.062500",
          "161104.062500",
          "161105.062500",
          "161106.062500",
          "161107.062500",
          "161108.062500",
          "161109.062500",
          "161110.062500",
          "161111.062500",
          "161112.062500",
          "161113.062500",
          "161114.062500",
          "161115.062500",
          "161116.062500",
          "161117.062500",
          "161118.062500",
          "161119.062500",
          "161120.062500",
          "161121.062500",
          "161122.062500",
          "161123.062500",
          "161124.062500",
          "161125.062500",
          "161126.062500",
          "161127.062500",
          "161128.062500",
          "161129.062500",
          "161130.062500",
          "161131.062500",
          "161132.062500",
          "161133.062500",
          "161134.062500",
          "161135.062500",
          "161136.062500",
          "161137.062500",
          "161138.062500",
          "161139.062500",
          "161140.062500",
          "161141.062500",
          "161142.062500",
          "161143.062500",
          "161144.062500",
          "161145.062500",
          "161146.062500",
          "161147.062500",
          "161148.062500",
          "161149.062500",
          "161150.062500",
          "161151.062500",
          "161152.062500",
          "161153.062500",
          "161154.062500",
          "161155.062500",
          "161156.062500",
          "161157.062500",
          "161158.062500",
          "161159.062500",
          "161200.062500",
          "161201.062500",
          "161202.062500",
          "161203.062500",
          "161204.062500",
          "161205.062500",
          "161206.062500",
          "161207.062500",
          "161208.062500",
          "161209.062500",
          "161210.062500",
          "161211.062500",
          "161212.062500",
          "161213.062500",
          "161214.062500",
          "161215.062500",
          "161216.062500",
          "161217.062500",
          "161218.062500",
          "161219.062500",
          "161220.062500",
          "161221.062500",
          "161222.062500",
          "161223.062500",
          "161224.062500",
          "161225.062500",
          "161226.062500",
          "161227.062500",
          "161228.062500",
          "161229.062500",
          "161230.062500",
          "161231.062500",
          "161232.062500",
          "161233.062500",
          "161234.062500",
          "161235.062500",
          "161236.062500",
          "161237.062500",
          "161238.062500"
        ],
        "ContentTime": [
          "161039.663000",
          "161039.666000",
          "161039.670000",
          "161039.672000",
          "161039.675000",
          "161039.678000",
          "161039.681000",
          "161039.684000",
          "161039.687000",
          "161039.689000",
          "161039.692000",
          "161039.695000",
          "161039.698000",
          "161039.701000",
          "161039.704000",
          "161039.712000",
          "161039.715000",
          "161039.718000",
          "161039.720000",
          "161039.723000",
          "161039.726000",
          "161039.729000",
          "161039.736000",
          "161059.630000",
          "161059.633000",
          "161059.636000",
          "161059.639000",
          "161059.642000",
          "161059.644000",
          "161059.647000",
          "161059.650000",
          "161059.653000",
          "161059.656000",
          "161059.659000",
          "161059.679000",
          "161059.682000",
          "161059.685000",
          "161059.688000",
          "161059.691000",
          "161059.694000",
          "161059.697000",
          "161059.700000",
          "161059.703000",
          "161059.706000",
          "161059.709000",
          "161059.712000",
          "161059.715000",
          "161059.718000",
          "161059.721000",
          "161059.724000",
          "161059.726000",
          "161119.631000",
          "161119.634000",
          "161119.637000",
          "161119.640000",
          "161119.643000",
          "161119.645000",
          "161119.648000",
          "161119.651000",
          "161119.654000",
          "161119.657000",
          "161119.660000",
          "161119.663000",
          "161119.666000",
          "161119.669000",
          "161119.672000",
          "161119.674000",
          "161119.677000",
          "161119.680000",
          "161119.683000",
          "161119.686000",
          "161119.689000",
          "161119.692000",
          "161119.695000",
          "161119.698000",
          "161119.700000",
          "161119.703000",
          "161119.706000",
          "161119.709000",
          "161139.631000",
          "161139.634000",
          "161139.637000",
          "161139.640000",
          "161139.661000",
          "161139.664000",
          "161139.667000",
          "161139.670000",
          "161139.673000",
          "161139.676000",
          "161139.679000",
          "161139.682000",
          "161139.685000",
          "161139.688000",
          "161139.691000",
          "161139.694000",
          "161139.697000",
          "161139.699000",
          "161139.702000",
          "161139.705000",
          "161139.708000",
          "161139.711000",
          "161139.714000",
          "161139.717000",
          "161139.720000",
          "161139.723000",
          "161139.726000",
          "161139.729000",
          "161159.631000",
          "161159.634000",
          "161159.637000",
          "161159.640000",
          "161159.643000",
          "161159.646000",
          "161159.649000",
          "161159.652000",
          "161159.655000",
          "161159.658000",
          "161159.661000",
          "161159.664000",
          "161159.667000",
          "161159.669000",
          "161159.672000",
          "161159.676000",
          "161159.679000",
          "161159.681000",
          "161159.684000",
          "161159.694000",
          "161159.697000",
          "161159.700000",
          "161159.703000",
          "161159.706000",
          "161159.709000",
          "161159.712000",
          "161159.714000",
          "161159.725000",
          "161159.728000",
          "161219.631000",
          "161219.634000",
          "161219.641000",
          "161219.644000",
          "161219.647000",
          "161219.650000",
          "161219.653000",
          "161219.656000",
          "161219.659000",
          "161219.662000",
          "161219.665000",
          "161219.668000",
          "161219.671000",
          "161219.673000",
          "161219.676000",
          "161219.679000",
          "161219.682000",
          "161219.685000",
          "161219.688000",
          "161219.691000",
          "161219.694000",
          "161219.697000",
          "161219.700000",
          "161219.703000",
          "161219.706000",
          "161219.709000",
          "161219.712000",
          "161219.714000",
          "161239.631000",
          "161239.636000",
          "161239.639000",
          "161239.642000",
          "161239.645000",
          "161239.648000",
          "161239.651000",
          "161239.654000",
          "161239.657000",
          "161239.660000",
          "161239.663000",
          "161239.666000",
          "161239.669000",
          "161239.672000",
          "161239.675000",
          "161239.678000",
          "161239.681000",
          "161239.689000",
          "161239.692000",
          "161239.698000",
          "161239.702000",
          "161239.710000",
          "161239.713000",
          "161239.716000",
          "161239.719000",
          "161239.722000",
          "161239.725000",
          "161239.817000"
        ],
        "InstanceCreationTime": [
          "161039.663000",
          "161039.666000",
          "161039.670000",
          "161039.672000",
          "161039.675000",
          "161039.678000",
          "161039.681000",
          "161039.684000",
          "161039.687000",
          "161039.689000",
          "161039.692000",
          "161039.695000",
          "161039.698000",
          "161039.701000",
          "161039.704000",
          "161039.712000",
          "161039.715000",
          "161039.718000",
          "161039.720000",
          "161039.723000",
          "161039.726000",
          "161039.729000",
          "161039.736000",
          "161059.630000",
          "161059.633000",
          "161059.636000",
          "161059.639000",
          "161059.642000",
          "161059.644000",
          "161059.647000",
          "161059.650000",
          "161059.653000",
          "161059.656000",
          "161059.659000",
          "161059.679000",
          "161059.682000",
          "161059.685000",
          "161059.688000",
          "161059.691000",
          "161059.694000",
          "161059.697000",
          "161059.700000",
          "161059.703000",
          "161059.706000",
          "161059.709000",
          "161059.712000",
          "161059.715000",
          "161059.718000",
          "161059.721000",
          "161059.724000",
          "161059.726000",
          "161119.631000",
          "161119.634000",
          "161119.637000",
          "161119.640000",
          "161119.643000",
          "161119.645000",
          "161119.648000",
          "161119.651000",
          "161119.654000",
          "161119.657000",
          "161119.660000",
          "161119.663000",
          "161119.666000",
          "161119.669000",
          "161119.672000",
          "161119.674000",
          "161119.677000",
          "161119.680000",
          "161119.683000",
          "161119.686000",
          "161119.689000",
          "161119.692000",
          "161119.695000",
          "161119.698000",
          "161119.700000",
          "161119.703000",
          "161119.706000",
          "161119.709000",
          "161139.631000",
          "161139.634000",
          "161139.637000",
          "161139.640000",
          "161139.661000",
          "161139.664000",
          "161139.667000",
          "161139.670000",
          "161139.673000",
          "161139.676000",
          "161139.679000",
          "161139.682000",
          "161139.685000",
          "161139.688000",
          "161139.691000",
          "161139.694000",
          "161139.697000",
          "161139.699000",
          "161139.702000",
          "161139.705000",
          "161139.708000",
          "161139.711000",
          "161139.714000",
          "161139.717000",
          "161139.720000",
          "161139.723000",
          "161139.726000",
          "161139.729000",
          "161159.631000",
          "161159.634000",
          "161159.637000",
          "161159.640000",
          "161159.643000",
          "161159.646000",
          "161159.649000",
          "161159.652000",
          "161159.655000",
          "161159.658000",
          "161159.661000",
          "161159.664000",
          "161159.667000",
          "161159.669000",
          "161159.672000",
          "161159.676000",
          "161159.679000",
          "161159.681000",
          "161159.684000",
          "161159.694000",
          "161159.697000",
          "161159.700000",
          "161159.703000",
          "161159.706000",
          "161159.709000",
          "161159.712000",
          "161159.714000",
          "161159.725000",
          "161159.728000",
          "161219.631000",
          "161219.634000",
          "161219.641000",
          "161219.644000",
          "161219.647000",
          "161219.650000",
          "161219.653000",
          "161219.656000",
          "161219.659000",
          "161219.662000",
          "161219.665000",
          "161219.668000",
          "161219.671000",
          "161219.673000",
          "161219.676000",
          "161219.679000",
          "161219.682000",
          "161219.685000",
          "161219.688000",
          "161219.691000",
          "161219.694000",
          "161219.697000",
          "161219.700000",
          "161219.703000",
          "161219.706000",
          "161219.709000",
          "161219.712000",
          "161219.714000",
          "161239.631000",
          "161239.636000",
          "161239.639000",
          "161239.642000",
          "161239.645000",
          "161239.648000",
          "161239.651000",
          "161239.654000",
          "161239.657000",
          "161239.660000",
          "161239.663000",
          "161239.666000",
          "161239.669000",
          "161239.672000",
          "161239.675000",
          "161239.678000",
          "161239.681000",
          "161239.689000",
          "161239.692000",
          "161239.698000",
          "161239.702000",
          "161239.710000",
          "161239.713000",
          "161239.716000",
          "161239.719000",
          "161239.722000",
          "161239.725000",
          "161239.817000"
        ],
        "InstanceNumber": [
          1,
          2,
          3,
          4,
          5,
          6,
          7,
          8,
          9,
          10,
          11,
          12,
          13,
          14,
          15,
          16,
          17,
          18,
          19,
          20,
          21,
          22,
          23,
          24,
          25,
          26,
          27,
          28,
          29,
          30,
          31,
          32,
          33,
          34,
          35,
          36,
          37,
          38,
          39,
          40,
          41,
          42,
          43,
          44,
          45,
          46,
          47,
          48,
          49,
          50,
          51,
          52,
          53,
          54,
          55,
          56,
          57,
          58,
          59,
          60,
          61,
          62,
          63,
          64,
          65,
          66,
          67,
          68,
          69,
          70,
          71,
          72,
          73,
          74,
          75,
          76,
          77,
          78,
          79,
          80,
          81,
          82,
          83,
          84,
          85,
          86,
          87,
          88,
          89,
          90,
          91,
          92,
          93,
          94,
          95,
          96,
          97,
          98,
          99,
          100,
          101,
          102,
          103,
          104,
          105,
          106,
          107,
          108,
          109,
          110,
          111,
          112,
          113,
          114,
          115,
          116,
          117,
          118,
          119,
          120,
          121,
          122,
          123,
          124,
          125,
          126,
          127,
          128,
          129,
          130,
          131,
          132,
          133,
          134,
          135,
          136,
          137,
          138,
          139,
          140,
          141,
          142,
          143,
          144,
          145,
          146,
          147,
          148,
          149,
          150,
          151,
          152,
          153,
          154,
          155,
          156,
          157,
          158,
          159,
          160,
          161,
          162,
          163,
          164,
          165,
          166,
          167,
          168,
          169,
          170,
          171,
          172,
          173,
          174,
          175,
          176,
          177,
          178,
          179,
          180,
          181,
          182,
          183,
          184,
          185,
          186,
          187,
          188,
          189,
          190,
          191,
          192
        ],
        "LargestImagePixelValue": [
          37249,
          36237,
          36139,
          35922,
          35046,
          35154,
          34976,
          34905,
          35386,
          34807,
          35318,
          35146,
          35269,
          35222,
          35358,
          34953,
          35409,
          34675,
          34789,
          35177,
          34909,
          35043,
          35083,
          34856,
          35097,
          35154,
          35143,
          35099,
          35174,
          35067,
          35094,
          35117,
          34485,
          34483,
          35088,
          34335,
          34354,
          34687,
          34602,
          34675,
          34766,
          34723,
          35048,
          35243,
          34952,
          35148,
          35197,
          35451,
          34918,
          35239,
          35554,
          35034,
          35534,
          35004,
          35229,
          35291,
          34833,
          35537,
          35361,
          35039,
          35723,
          35712,
          35351,
          35361,
          35001,
          35314,
          34948,
          34869,
          35368,
          35218,
          35155,
          35397,
          35247,
          35237,
          35196,
          34994,
          35040,
          34742,
          35135,
          35273,
          35150,
          35457,
          35577,
