{
  "aor": 0.0007675520833333333,
  "aqi": 0.004153384895833333,
  "bids_meta": {
    "AcquisitionMatrixPE": 104,
    "AcquisitionNumber": 1,
    "AcquisitionTime": "16:30:12.072500",
    "BandwidthPerPixelPhaseEncode": 16.578,
    "BaseResolution": 104,
    "BodyPartExamined": "BRAIN",
    "CogAtlasID": "TODO",
    "ConsistencyInfo": "N4_VE11C_LATEST_20160120",
    "ConversionSoftware": "dcm2niix",
    "ConversionSoftwareVersion": "v1.0.20190902",
    "DerivedVendorReportedEchoSpacing": 0.000580009,
    "DeviceSerialNumber": "166018",
    "DwellTime": 2.1e-06,
    "EchoTime": 0.037,
    "EchoTrainLength": 104,
    "EffectiveEchoSpacing": 0.000580009,
    "FlipAngle": 68,
    "ImageComments": "Unaliased_MB6_PE3_LB",
    "ImageOrientationPatientDICOM": [
      0.998865,
      0.0428984,
      0.0206747,
      -0.0425635,
      0.99896,
      -0.0163773
    ],
    "ImageType": [
      "ORIGINAL",
      "PRIMARY",
      "M",
      "MB",
      "ND",
      "MOSAIC"
    ],
    "ImagingFrequency": 123.191,
    "InPlanePhaseEncodingDirectionDICOM": "COL",
    "InstitutionAddress": "Washington_Place_6_NYC_NYC_US_10003",
    "InstitutionName": "NYU_-_CBI",
    "InstitutionalDepartmentName": "Department",
    "MRAcquisitionType": "2D",
    "MagneticFieldStrength": 3,
    "Manufacturer": "Siemens",
    "ManufacturersModelName": "Prisma",
    "Modality": "MR",
    "MultibandAccelerationFactor": 6,
    "NumberOfVolumes": 192,
    "PartialFourier": 1,
    "PatientPosition": "HFS",
    "PercentPhaseFOV": 100,
    "PhaseEncodingDirection": "j",
    "PhaseEncodingSteps": 104,
    "PhaseResolution": 1,
    "PixelBandwidth": 2290,
    "ProcedureStepDescription": "Investigators_Winawer",
    "ProtocolName": "cmrr_mbepi_s6_2mm_66sl_PA_TR1.0",
    "PulseSequenceDetails": "%CustomerSeq%_cmrr_mbep2d_bold",
    "ReceiveCoilActiveElements": "HC1-7",
    "ReceiveCoilName": "HeadNeck_64",
    "ReconMatrixPE": 104,
    "RepetitionTime": 1,
    "SAR": 0.0673717,
    "ScanOptions": "FS",
    "ScanningSequence": "EP",
    "SequenceName": "epfid2d1_104",
    "SequenceVariant": "SK_SS",
    "SeriesDescription": "cmrr_mbepi_s6_2mm_66sl_PA_TR1.0",
    "SeriesNumber": 26,
    "ShimSetting": [
      277,
      -12571,
      -8534,
      278,
      -14,
      -5,
      51,
      -2
    ],
    "SliceThickness": 2,
    "SliceTiming": [
      0,
      0.535,
      0.09,
      0.625,
      0.1775,
      0.7125,
      0.2675,
      0.8025,
      0.3575,
      0.8925,
      0.445,
      0,
      0.535,
      0.09,
      0.625,
      0.1775,
      0.7125,
      0.2675,
      0.8025,
      0.3575,
      0.8925,
      0.445,
      0,
      0.535,
      0.09,
      0.625,
      0.1775,
      0.7125,
      0.2675,
      0.8025,
      0.3575,
      0.8925,
      0.445,
      0,
      0.535,
      0.09,
      0.625,
      0.1775,
      0.7125,
      0.2675,
      0.8025,
      0.3575,
      0.8925,
      0.445,
      0,
      0.535,
      0.09,
      0.625,
      0.1775,
      0.7125,
      0.2675,
      0.8025,
      0.3575,
      0.8925,
      0.445,
      0,
      0.535,
      0.09,
      0.625,
      0.1775,
      0.7125,
      0.2675,
      0.8025,
      0.3575,
      0.8925,
      0.445
    ],
    "SoftwareVersions": "syngo_MR_E11",
    "SpacingBetweenSlices": 2,
    "StationName": "AWP166018",
    "TaskName": "prf",
    "TotalReadoutTime": 0.0597409,
    "TxRefAmp": 205.563,
    "WipMemBlock": "88b4fea0-de75-4c6f-91fc-73fd0da921d6||Sequence: ve11c/master r/ab69a6c; Apr 19 2017 09:47:47 by eja",
    "acq_id": "PA",
    "dataset": "unknown",
    "dcmmeta_affine": [
      [
        -1.9977309703826904,
        -0.08512690663337708,
        0.0427115261554718,
        111.0504379272461
      ],
      [
        -0.0857967883348465,
        1.9979190826416016,
        -0.030957387760281563,
        -83.35585021972656
      ],
      [
        0.04134942963719368,
        0.03275452181696892,
        1.999304175376892,
        -41.87906265258789
      ],
      [
        0.0,
        0.0,
        0.0,
        1.0
      ]
    ],
    "dcmmeta_reorient_transform": [
      [
        0.0,
        -1.0,
        0.0,
        103.0
      ],
      [
        1.0,
        0.0,
        0.0,
        0.0
      ],
      [
        0.0,
        0.0,
        1.0,
        0.0
      ],
      [
        0.0,
        0.0,
        0.0,
        1.0
      ]
    ],
    "dcmmeta_shape": [
      104,
      104,
      66,
      192
    ],
    "dcmmeta_slice_dim": 2,
    "dcmmeta_version": 0.6,
    "global": {
      "const": {
        "AccessionNumber": "j9yLnzuo",
        "AcquisitionMatrix": [
          104,
          0,
          0,
          104
        ],
        "AngioFlag": "N",
        "BitsAllocated": 16,
        "BitsStored": 16,
        "BodyPartExamined": "BRAIN",
        "Columns": 936,
        "EchoNumbers": 1,
        "EchoTime": 37.0,
        "EchoTrainLength": 104,
        "FlipAngle": 68.0,
        "HighBit": 15,
        "ImageOrientationPatient": [
          0.99886549836743,
          0.04289839512642,
          0.02067471563915,
          -0.0425634536089,
          0.99895952756743,
          -0.0163772616497
        ],
        "ImagePositionPatient": [
          -897.92566420561,
          -989.25560713314,
          -42.080827578655
        ],
        "ImageType": [
          "ORIGINAL",
          "PRIMARY",
          "M",
          "MB",
          "ND",
          "MOSAIC"
        ],
        "ImagedNucleus": "1H",
        "ImagingFrequency": 123.1913,
        "InPlanePhaseEncodingDirection": "COL",
        "MRAcquisitionType": "2D",
        "MagneticFieldStrength": 3.0,
        "Manufacturer": "SIEMENS",
        "ManufacturerModelName": "Prisma",
        "Modality": "MR",
        "NumberOfAverages": 1.0,
        "NumberOfPhaseEncodingSteps": 104,
        "PercentPhaseFieldOfView": 100.0,
        "PercentSampling": 100.0,
        "PerformedProcedureStepStartTime": "153632.718000",
        "PhotometricInterpretation": "MONOCHROME2",
        "PixelBandwidth": 2290.0,
        "PixelRepresentation": 0,
        "PixelSpacing": [
          2.0,
          2.0
        ],
        "ProtocolName": "cmrr_mbepi_s6_2mm_66sl_PA_TR1.0",
        "RepetitionTime": 1000.0,
        "Rows": 936,
        "SAR": 0.06737168448902,
        "SamplesPerPixel": 1,
        "ScanOptions": "FS",
        "ScanningSequence": "EP",
        "SequenceName": "epfid2d1_104",
        "SequenceVariant": [
          "SK",
          "SS"
        ],
        "SeriesDescription": "cmrr_mbepi_s6_2mm_66sl_PA_TR1.0",
        "SeriesNumber": 26,
        "SeriesTime": "163124.554000",
        "SliceLocation": -38.202686089358,
        "SliceThickness": 2.0,
        "SmallestImagePixelValue": 0,
        "SoftwareVersions": "syngo MR E11",
        "SpacingBetweenSlices": 1.9999999787566,
        "SpecificCharacterSet": "ISO_IR 100",
        "StudyID": "1",
        "StudyTime": "153632.662000",
        "TransmitCoilName": "Body",
        "VariableFlipAngleFlag": "N",
        "WindowCenterWidthExplanation": "Algo1",
        "dBdt": 0.0
      },
      "slices": {}
    },
    "modality": "bold",
    "run_id": 9,
    "session_id": "nyu3t01",
    "subject_id": "wlsubj007",
    "task_id": "prf",
    "time": {
      "samples": {
        "AcquisitionNumber": [
          1,
          2,
          3,
          4,
          5,
          6,
          7,
          8,
          9,
          10,
          11,
          12,
          13,
          14,
          15,
          16,
          17,
          18,
          19,
          20,
          21,
          22,
          23,
          24,
          25,
          26,
          27,
          28,
          29,
          30,
          31,
          32,
          33,
          34,
          35,
          36,
          37,
          38,
          39,
          40,
          41,
          42,
          43,
          44,
          45,
          46,
          47,
          48,
          49,
          50,
          51,
          52,
          53,
          54,
          55,
          56,
          57,
          58,
          59,
          60,
          61,
          62,
          63,
          64,
          65,
          66,
          67,
          68,
          69,
          70,
          71,
          72,
          73,
          74,
          75,
          76,
          77,
          78,
          79,
          80,
          81,
          82,
          83,
          84,
          85,
          86,
          87,
          88,
          89,
          90,
          91,
          92,
          93,
          94,
          95,
          96,
          97,
          98,
          99,
          100,
          101,
          102,
          103,
          104,
          105,
          106,
          107,
          108,
          109,
          110,
          111,
          112,
          113,
          114,
          115,
          116,
          117,
          118,
          119,
          120,
          121,
          122,
          123,
          124,
          125,
          126,
          127,
          128,
          129,
          130,
          131,
          132,
          133,
          134,
          135,
          136,
          137,
          138,
          139,
          140,
          141,
          142,
          143,
          144,
          145,
          146,
          147,
          148,
          149,
          150,
          151,
          152,
          153,
          154,
          155,
          156,
          157,
          158,
          159,
          160,
          161,
          162,
          163,
          164,
          165,
          166,
          167,
          168,
          169,
          170,
          171,
          172,
          173,
          174,
          175,
          176,
          177,
          178,
          179,
          180,
          181,
          182,
          183,
          184,
          185,
          186,
          187,
          188,
          189,
          190,
          191,
          192
        ],
        "AcquisitionTime": [
          "163012.072500",
          "163013.072500",
          "163014.072500",
          "163015.072500",
          "163016.072500",
          "163017.072500",
          "163018.072500",
          "163019.072500",
          "163020.072500",
          "163021.072500",
          "163022.072500",
          "163023.072500",
          "163024.072500",
          "163025.072500",
          "163026.072500",
          "163027.072500",
          "163028.072500",
          "163029.072500",
          "163030.072500",
          "163031.072500",
          "163032.072500",
          "163033.072500",
          "163034.072500",
          "163035.072500",
          "163036.072500",
          "163037.072500",
          "163038.072500",
          "163039.072500",
          "163040.072500",
          "163041.072500",
          "163042.072500",
          "163043.072500",
          "163044.072500",
          "163045.072500",
          "163046.072500",
          "163047.072500",
          "163048.072500",
          "163049.072500",
          "163050.072500",
          "163051.072500",
          "163052.072500",
          "163053.072500",
          "163054.072500",
          "163055.072500",
          "163056.072500",
          "163057.072500",
          "163058.072500",
          "163059.072500",
          "163100.072500",
          "163101.072500",
          "163102.072500",
          "163103.072500",
          "163104.072500",
          "163105.072500",
          "163106.072500",
          "163107.072500",
          "163108.072500",
          "163109.072500",
          "163110.072500",
          "163111.072500",
          "163112.072500",
          "163113.072500",
          "163114.072500",
          "163115.072500",
          "163116.072500",
          "163117.072500",
          "163118.072500",
          "163119.072500",
          "163120.072500",
          "163121.072500",
          "163122.072500",
          "163123.072500",
          "163124.072500",
          "163125.072500",
          "163126.072500",
          "163127.072500",
          "163128.072500",
          "163129.072500",
          "163130.072500",
          "163131.072500",
          "163132.072500",
          "163133.072500",
          "163134.072500",
          "163135.072500",
          "163136.072500",
          "163137.072500",
          "163138.072500",
          "163139.072500",
          "163140.072500",
          "163141.072500",
          "163142.072500",
          "163143.072500",
          "163144.072500",
          "163145.072500",
          "163146.072500",
          "163147.072500",
          "163148.072500",
          "163149.072500",
          "163150.072500",
          "163151.072500",
          "163152.072500",
          "163153.072500",
          "163154.072500",
          "163155.072500",
          "163156.072500",
          "163157.072500",
          "163158.072500",
          "163159.072500",
          "163200.072500",
          "163201.072500",
          "163202.072500",
          "163203.072500",
          "163204.072500",
          "163205.072500",
          "163206.072500",
          "163207.072500",
          "163208.072500",
          "163209.072500",
          "163210.072500",
          "163211.072500",
          "163212.072500",
          "163213.072500",
          "163214.072500",
          "163215.072500",
          "163216.072500",
          "163217.072500",
          "163218.072500",
          "163219.072500",
          "163220.072500",
          "163221.072500",
          "163222.072500",
          "163223.072500",
          "163224.072500",
          "163225.072500",
          "163226.072500",
          "163227.072500",
          "163228.072500",
          "163229.072500",
          "163230.072500",
          "163231.072500",
          "163232.072500",
          "163233.072500",
          "163234.072500",
          "163235.072500",
          "163236.072500",
          "163237.072500",
          "163238.072500",
          "163239.072500",
          "163240.072500",
          "163241.072500",
          "163242.072500",
          "163243.072500",
          "163244.072500",
          "163245.072500",
          "163246.072500",
          "163247.072500",
          "163248.072500",
          "163249.072500",
          "163250.072500",
          "163251.072500",
          "163252.072500",
          "163253.072500",
          "163254.072500",
          "163255.072500",
          "163256.072500",
          "163257.072500",
          "163258.072500",
          "163259.072500",
          "163300.072500",
          "163301.072500",
          "163302.072500",
          "163303.072500",
          "163304.072500",
          "163305.072500",
          "163306.072500",
          "163307.072500",
          "163308.072500",
          "163309.072500",
          "163310.072500",
          "163311.072500",
          "163312.072500",
          "163313.072500",
          "163314.072500",
          "163315.072500",
          "163316.072500",
          "163317.072500",
          "163318.072500",
          "163319.072500",
          "163320.072500",
          "163321.072500",
          "163322.072500",
          "163323.072500"
        ],
        "ContentTime": [
          "163124.557000",
          "163124.561000",
          "163124.564000",
          "163124.567000",
          "163124.570000",
          "163124.573000",
          "163124.576000",
          "163124.579000",
          "163124.581000",
          "163124.584000",
          "163124.587000",
          "163124.590000",
          "163124.593000",
          "163124.596000",
          "163124.599000",
          "163124.602000",
          "163124.604000",
          "163124.607000",
          "163124.610000",
          "163124.613000",
          "163124.616000",
          "163124.623000",
          "163124.626000",
          "163124.629000",
          "163124.632000",
          "163124.635000",
          "163124.637000",
          "163124.640000",
          "163124.643000",
          "163124.646000",
          "163124.649000",
          "163124.652000",
          "163144.526000",
          "163144.529000",
          "163144.532000",
          "163144.535000",
          "163144.544000",
          "163144.547000",
          "163144.549000",
          "163144.552000",
          "163144.555000",
          "163144.558000",
          "163144.562000",
          "163144.565000",
          "163144.568000",
          "163144.571000",
          "163144.574000",
          "163144.577000",
          "163144.580000",
          "163144.583000",
          "163144.586000",
          "163144.589000",
          "163144.592000",
          "163144.594000",
          "163144.597000",
          "163144.600000",
          "163144.603000",
          "163144.606000",
          "163144.609000",
          "163144.611000",
          "163204.526000",
          "163204.529000",
          "163204.532000",
          "163204.535000",
          "163204.537000",
          "163204.540000",
          "163204.543000",
          "163204.546000",
          "163204.549000",
          "163204.552000",
          "163204.554000",
          "163204.557000",
          "163204.562000",
          "163204.565000",
          "163204.568000",
          "163204.571000",
          "163204.586000",
          "163204.595000",
          "163204.597000",
          "163204.600000",
          "163204.603000",
          "163204.606000",
          "163204.609000",
          "163204.612000",
          "163204.615000",
          "163204.618000",
          "163204.621000",
          "163204.623000",
          "163224.526000",
          "163224.529000",
          "163224.532000",
          "163224.535000",
          "163224.538000",
          "163224.541000",
          "163224.543000",
          "163224.546000",
          "163224.564000",
          "163224.567000",
          "163224.570000",
          "163224.573000",
          "163224.576000",
          "163224.579000",
          "163224.582000",
          "163224.585000",
          "163224.588000",
          "163224.591000",
          "163224.594000",
          "163224.597000",
          "163224.600000",
          "163224.603000",
          "163224.605000",
          "163224.608000",
          "163224.611000",
          "163224.614000",
          "163224.617000",
          "163224.620000",
          "163244.526000",
          "163244.529000",
          "163244.532000",
          "163244.534000",
          "163244.537000",
          "163244.540000",
          "163244.543000",
          "163244.546000",
          "163244.549000",
          "163244.562000",
          "163244.565000",
          "163244.568000",
          "163244.571000",
          "163244.574000",
          "163244.577000",
          "163244.580000",
          "163244.583000",
          "163244.586000",
          "163244.589000",
          "163244.591000",
          "163244.594000",
          "163244.597000",
          "163244.600000",
          "163244.603000",
          "163244.606000",
          "163244.609000",
          "163244.611000",
          "163244.614000",
          "163244.617000",
          "163304.526000",
          "163304.529000",
          "163304.532000",
          "163304.535000",
          "163304.537000",
          "163304.540000",
          "163304.543000",
          "163304.546000",
          "163304.549000",
          "163304.552000",
          "163304.555000",
          "163304.558000",
          "163304.563000",
          "163304.566000",
          "163304.568000",
          "163304.571000",
          "163304.574000",
          "163304.577000",
          "163304.580000",
          "163304.583000",
          "163304.586000",
          "163304.598000",
          "163304.600000",
          "163304.603000",
          "163304.606000",
          "163304.609000",
          "163324.525000",
          "163324.528000",
          "163324.531000",
          "163324.534000",
          "163324.537000",
          "163324.539000",
          "163324.542000",
          "163324.546000",
          "163324.548000",
          "163324.551000",
          "163324.554000",
          "163324.557000",
          "163324.560000",
          "163324.573000",
          "163324.589000",
          "163324.592000",
          "163324.595000",
          "163324.598000",
          "163324.601000",
          "163324.604000",
          "163324.752000"
        ],
        "InstanceCreationTime": [
          "163124.557000",
          "163124.561000",
          "163124.564000",
          "163124.567000",
          "163124.570000",
          "163124.573000",
          "163124.576000",
          "163124.579000",
          "163124.581000",
          "163124.584000",
          "163124.587000",
          "163124.590000",
          "163124.593000",
          "163124.596000",
          "163124.599000",
          "163124.602000",
          "163124.604000",
          "163124.607000",
          "163124.610000",
          "163124.613000",
          "163124.616000",
          "163124.623000",
          "163124.626000",
          "163124.629000",
          "163124.632000",
          "163124.635000",
          "163124.637000",
          "163124.640000",
          "163124.643000",
          "163124.646000",
          "163124.649000",
          "163124.652000",
          "163144.526000",
          "163144.529000",
          "163144.532000",
          "163144.535000",
          "163144.544000",
          "163144.547000",
          "163144.549000",
          "163144.552000",
          "163144.555000",
          "163144.558000",
          "163144.562000",
          "163144.565000",
          "163144.568000",
          "163144.571000",
          "163144.574000",
          "163144.577000",
          "163144.580000",
          "163144.583000",
          "163144.586000",
          "163144.589000",
          "163144.592000",
          "163144.594000",
          "163144.597000",
          "163144.600000",
          "163144.603000",
          "163144.606000",
          "163144.609000",
          "163144.611000",
          "163204.526000",
          "163204.529000",
          "163204.532000",
          "163204.535000",
          "163204.537000",
          "163204.540000",
          "163204.543000",
          "163204.546000",
          "163204.549000",
          "163204.552000",
          "163204.554000",
          "163204.557000",
          "163204.562000",
          "163204.565000",
          "163204.568000",
          "163204.571000",
          "163204.586000",
          "163204.595000",
          "163204.597000",
          "163204.600000",
          "163204.603000",
          "163204.606000",
          "163204.609000",
          "163204.612000",
          "163204.615000",
          "163204.618000",
          "163204.621000",
          "163204.623000",
          "163224.526000",
          "163224.529000",
          "163224.532000",
          "163224.535000",
          "163224.538000",
          "163224.541000",
          "163224.543000",
          "163224.546000",
          "163224.564000",
          "163224.567000",
          "163224.570000",
          "163224.573000",
          "163224.576000",
          "163224.579000",
          "163224.582000",
          "163224.585000",
          "163224.588000",
          "163224.591000",
          "163224.594000",
          "163224.597000",
          "163224.600000",
          "163224.603000",
          "163224.605000",
          "163224.608000",
          "163224.611000",
          "163224.614000",
          "163224.617000",
          "163224.620000",
          "163244.526000",
          "163244.529000",
          "163244.532000",
          "163244.534000",
          "163244.537000",
          "163244.540000",
          "163244.543000",
          "163244.546000",
          "163244.549000",
          "163244.562000",
          "163244.565000",
          "163244.568000",
          "163244.571000",
          "163244.574000",
          "163244.577000",
          "163244.580000",
          "163244.583000",
          "163244.586000",
          "163244.589000",
          "163244.591000",
          "163244.594000",
          "163244.597000",
          "163244.600000",
          "163244.603000",
          "163244.606000",
          "163244.609000",
          "163244.611000",
          "163244.614000",
          "163244.617000",
          "163304.526000",
          "163304.529000",
          "163304.532000",
          "163304.535000",
          "163304.537000",
          "163304.540000",
          "163304.543000",
          "163304.546000",
          "163304.549000",
          "163304.552000",
          "163304.555000",
          "163304.558000",
          "163304.563000",
          "163304.566000",
          "163304.568000",
          "163304.571000",
          "163304.574000",
          "163304.577000",
          "163304.580000",
          "163304.583000",
          "163304.586000",
          "163304.598000",
          "163304.600000",
          "163304.603000",
          "163304.606000",
          "163304.609000",
          "163324.525000",
          "163324.528000",
          "163324.531000",
          "163324.534000",
          "163324.537000",
          "163324.539000",
          "163324.542000",
          "163324.546000",
          "163324.548000",
          "163324.551000",
          "163324.554000",
          "163324.557000",
          "163324.560000",
          "163324.573000",
          "163324.589000",
          "163324.592000",
          "163324.595000",
          "163324.598000",
          "163324.601000",
          "163324.604000",
          "163324.752000"
        ],
        "InstanceNumber": [
          1,
          2,
          3,
          4,
          5,
          6,
          7,
          8,
          9,
          10,
          11,
          12,
          13,
          14,
          15,
          16,
          17,
          18,
          19,
          20,
          21,
          22,
          23,
          24,
          25,
          26,
          27,
          28,
          29,
          30,
          31,
          32,
          33,
          34,
          35,
          36,
          37,
          38,
          39,
          40,
          41,
          42,
          43,
          44,
          45,
          46,
          47,
          48,
          49,
          50,
          51,
          52,
          53,
          54,
          55,
          56,
          57,
          58,
          59,
          60,
          61,
          62,
          63,
          64,
          65,
          66,
          67,
          68,
          69,
          70,
          71,
          72,
          73,
          74,
          75,
          76,
          77,
          78,
          79,
          80,
          81,
          82,
          83,
          84,
          85,
          86,
          87,
          88,
          89,
          90,
          91,
          92,
          93,
          94,
          95,
          96,
          97,
          98,
          99,
          100,
          101,
          102,
          103,
          104,
          105,
          106,
          107,
          108,
          109,
          110,
          111,
          112,
          113,
          114,
          115,
          116,
          117,
          118,
          119,
          120,
          121,
          122,
          123,
          124,
          125,
          126,
          127,
          128,
          129,
          130,
          131,
          132,
          133,
          134,
          135,
          136,
          137,
          138,
          139,
          140,
          141,
          142,
          143,
          144,
          145,
          146,
          147,
          148,
          149,
          150,
          151,
          152,
          153,
          154,
          155,
          156,
          157,
          158,
          159,
          160,
          161,
          162,
          163,
          164,
          165,
          166,
          167,
          168,
          169,
          170,
          171,
          172,
          173,
          174,
          175,
          176,
          177,
          178,
          179,
          180,
          181,
          182,
          183,
          184,
          185,
          186,
          187,
          188,
          189,
          190,
          191,
          192
        ],
        "LargestImagePixelValue": [
          36827,
          36296,
          35845,
          35308,
          35076,
          34940,
          34571,
          34543,
          34445,
          34887,
          34801,
          34515,
          34694,
          35122,
          34819,
          34756,
          34658,
          34538,
          34798,
          34309,
          34674,
          34472,
          34547,
          34421,
          34859,
          35190,
          34398,
          34888,
          34738,
          34229,
          34579,
          34472,
          34162,
          34342,
          34396,
          34401,
          34452,
          34361,
          34722,
          34573,
          34334,
          34361,
          34460,
          34416,
          34473,
          34206,
          34879,
          34624,
          33931,
          34415,
          34601,
          34668,
          34735,
          34222,
          35025,
          34486,
          34494,
          34491,
          34517,
          34480,
          34273,
          34121,
          34750,
          34725,
          34653,
          34579,
          34498,
          34541,
          34666,
          33872,
          34410,
          34553,
          34609,
          34432,
          34354,
          34563,
          34581,
          35135,
          34311,
          34663,
          34284,
          34591,
          34104,
