{
  "aor": 0.0006627225130890051,
  "aqi": 0.004097335811518325,
  "bids_meta": {
    "AcquisitionMatrixPE": 104,
    "AcquisitionNumber": 1,
    "AcquisitionTime": "16:05:12.665000",
    "BandwidthPerPixelPhaseEncode": 16.578,
    "BaseResolution": 104,
    "BodyPartExamined": "BRAIN",
    "CogAtlasID": "TODO",
    "ConsistencyInfo": "N4_VE11C_LATEST_20160120",
    "ConversionSoftware": "dcm2niix",
    "ConversionSoftwareVersion": "v1.0.20190902",
    "DerivedVendorReportedEchoSpacing": 0.000580009,
    "DeviceSerialNumber": "166018",
    "DwellTime": 2.1e-06,
    "EchoTime": 0.037,
    "EchoTrainLength": 104,
    "EffectiveEchoSpacing": 0.000580009,
    "FlipAngle": 68,
    "ImageComments": "Unaliased_MB6_PE3_LB",
    "ImageOrientationPatientDICOM": [
      0.998865,
      0.0428984,
      0.0206747,
      -0.0425635,
      0.99896,
      -0.0163773
    ],
    "ImageType": [
      "ORIGINAL",
      "PRIMARY",
      "M",
      "MB",
      "ND",
      "MOSAIC"
    ],
    "ImagingFrequency": 123.191,
    "InPlanePhaseEncodingDirectionDICOM": "COL",
    "InstitutionAddress": "Washington_Place_6_NYC_NYC_US_10003",
    "InstitutionName": "NYU_-_CBI",
    "InstitutionalDepartmentName": "Department",
    "MRAcquisitionType": "2D",
    "MagneticFieldStrength": 3,
    "Manufacturer": "Siemens",
    "ManufacturersModelName": "Prisma",
    "Modality": "MR",
    "MultibandAccelerationFactor": 6,
    "NumberOfVolumes": 192,
    "PartialFourier": 1,
    "PatientPosition": "HFS",
    "PercentPhaseFOV": 100,
    "PhaseEncodingDirection": "j",
    "PhaseEncodingSteps": 104,
    "PhaseResolution": 1,
    "PixelBandwidth": 2290,
    "ProcedureStepDescription": "Investigators_Winawer",
    "ProtocolName": "cmrr_mbepi_s6_2mm_66sl_PA_TR1.0",
    "PulseSequenceDetails": "%CustomerSeq%_cmrr_mbep2d_bold",
    "ReceiveCoilActiveElements": "HC1-7",
    "ReceiveCoilName": "HeadNeck_64",
    "ReconMatrixPE": 104,
    "RepetitionTime": 1,
    "SAR": 0.0673717,
    "ScanOptions": "FS",
    "ScanningSequence": "EP",
    "SequenceName": "epfid2d1_104",
    "SequenceVariant": "SK_SS",
    "SeriesDescription": "cmrr_mbepi_s6_2mm_66sl_PA_TR1.0",
    "SeriesNumber": 14,
    "ShimSetting": [
      277,
      -12571,
      -8534,
      278,
      -14,
      -5,
      51,
      -2
    ],
    "SliceThickness": 2,
    "SliceTiming": [
      0,
      0.535,
      0.09,
      0.625,
      0.18,
      0.7125,
      0.2675,
      0.8025,
      0.3575,
      0.8925,
      0.445,
      0,
      0.535,
      0.09,
      0.625,
      0.18,
      0.7125,
      0.2675,
      0.8025,
      0.3575,
      0.8925,
      0.445,
      0,
      0.535,
      0.09,
      0.625,
      0.18,
      0.7125,
      0.2675,
      0.8025,
      0.3575,
      0.8925,
      0.445,
      0,
      0.535,
      0.09,
      0.625,
      0.18,
      0.7125,
      0.2675,
      0.8025,
      0.3575,
      0.8925,
      0.445,
      0,
      0.535,
      0.09,
      0.625,
      0.18,
      0.7125,
      0.2675,
      0.8025,
      0.3575,
      0.8925,
      0.445,
      0,
      0.535,
      0.09,
      0.625,
      0.18,
      0.7125,
      0.2675,
      0.8025,
      0.3575,
      0.8925,
      0.445
    ],
    "SoftwareVersions": "syngo_MR_E11",
    "SpacingBetweenSlices": 2,
    "StationName": "AWP166018",
    "TaskName": "prf",
    "TotalReadoutTime": 0.0597409,
    "TxRefAmp": 205.563,
    "WipMemBlock": "3dc57d3e-2d89-4978-bb7f-6dca905fa98b||Sequence: ve11c/master r/ab69a6c; Apr 19 2017 09:47:47 by eja",
    "acq_id": "PA",
    "dataset": "unknown",
    "dcmmeta_affine": [
      [
        -1.9977309703826904,
        -0.08512690663337708,
        0.0427115261554718,
        111.0504379272461
      ],
      [
        -0.0857967883348465,
        1.9979190826416016,
        -0.030957387760281563,
        -83.35585021972656
      ],
      [
        0.04134942963719368,
        0.03275452181696892,
        1.999304175376892,
        -41.87906265258789
      ],
      [
        0.0,
        0.0,
        0.0,
        1.0
      ]
    ],
    "dcmmeta_reorient_transform": [
      [
        0.0,
        -1.0,
        0.0,
        103.0
      ],
      [
        1.0,
        0.0,
        0.0,
        0.0
      ],
      [
        0.0,
        0.0,
        1.0,
        0.0
      ],
      [
        0.0,
        0.0,
        0.0,
        1.0
      ]
    ],
    "dcmmeta_shape": [
      104,
      104,
      66,
      192
    ],
    "dcmmeta_slice_dim": 2,
    "dcmmeta_version": 0.6,
    "global": {
      "const": {
        "AccessionNumber": "j9yLnzuo",
        "AcquisitionMatrix": [
          104,
          0,
          0,
          104
        ],
        "AngioFlag": "N",
        "BitsAllocated": 16,
        "BitsStored": 16,
        "BodyPartExamined": "BRAIN",
        "Columns": 936,
        "EchoNumbers": 1,
        "EchoTime": 37.0,
        "EchoTrainLength": 104,
        "FlipAngle": 68.0,
        "HighBit": 15,
        "ImageOrientationPatient": [
          0.99886549836743,
          0.04289839512642,
          0.02067471563915,
          -0.0425634536089,
          0.99895952756743,
          -0.0163772616497
        ],
        "ImagePositionPatient": [
          -897.92566420561,
          -989.25560713314,
          -42.080827578655
        ],
        "ImageType": [
          "ORIGINAL",
          "PRIMARY",
          "M",
          "MB",
          "ND",
          "MOSAIC"
        ],
        "ImagedNucleus": "1H",
        "ImagingFrequency": 123.191285,
        "InPlanePhaseEncodingDirection": "COL",
        "MRAcquisitionType": "2D",
        "MagneticFieldStrength": 3.0,
        "Manufacturer": "SIEMENS",
        "ManufacturerModelName": "Prisma",
        "Modality": "MR",
        "NumberOfAverages": 1.0,
        "NumberOfPhaseEncodingSteps": 104,
        "PercentPhaseFieldOfView": 100.0,
        "PercentSampling": 100.0,
        "PerformedProcedureStepStartTime": "153632.718000",
        "PhotometricInterpretation": "MONOCHROME2",
        "PixelBandwidth": 2290.0,
        "PixelRepresentation": 0,
        "PixelSpacing": [
          2.0,
          2.0
        ],
        "ProtocolName": "cmrr_mbepi_s6_2mm_66sl_PA_TR1.0",
        "RepetitionTime": 1000.0,
        "Rows": 936,
        "SAR": 0.06737168448902,
        "SamplesPerPixel": 1,
        "ScanOptions": "FS",
        "ScanningSequence": "EP",
        "SequenceName": "epfid2d1_104",
        "SequenceVariant": [
          "SK",
          "SS"
        ],
        "SeriesDescription": "cmrr_mbepi_s6_2mm_66sl_PA_TR1.0",
        "SeriesNumber": 14,
        "SeriesTime": "160624.554000",
        "SliceLocation": -38.202686089358,
        "SliceThickness": 2.0,
        "SmallestImagePixelValue": 0,
        "SoftwareVersions": "syngo MR E11",
        "SpacingBetweenSlices": 1.9999999787566,
        "SpecificCharacterSet": "ISO_IR 100",
        "StudyID": "1",
        "StudyTime": "153632.662000",
        "TransmitCoilName": "Body",
        "VariableFlipAngleFlag": "N",
        "WindowCenterWidthExplanation": "Algo1",
        "dBdt": 0.0
      },
      "slices": {}
    },
    "modality": "bold",
    "run_id": 3,
    "session_id": "nyu3t01",
    "subject_id": "wlsubj007",
    "task_id": "prf",
    "time": {
      "samples": {
        "AcquisitionNumber": [
          1,
          2,
          3,
          4,
          5,
          6,
          7,
          8,
          9,
          10,
          11,
          12,
          13,
          14,
          15,
          16,
          17,
          18,
          19,
          20,
          21,
          22,
          23,
          24,
          25,
          26,
          27,
          28,
          29,
          30,
          31,
          32,
          33,
          34,
          35,
          36,
          37,
          38,
          39,
          40,
          41,
          42,
          43,
          44,
          45,
          46,
          47,
          48,
          49,
          50,
          51,
          52,
          53,
          54,
          55,
          56,
          57,
          58,
          59,
          60,
          61,
          62,
          63,
          64,
          65,
          66,
          67,
          68,
          69,
          70,
          71,
          72,
          73,
          74,
          75,
          76,
          77,
          78,
          79,
          80,
          81,
          82,
          83,
          84,
          85,
          86,
          87,
          88,
          89,
          90,
          91,
          92,
          93,
          94,
          95,
          96,
          97,
          98,
          99,
          100,
          101,
          102,
          103,
          104,
          105,
          106,
          107,
          108,
          109,
          110,
          111,
          112,
          113,
          114,
          115,
          116,
          117,
          118,
          119,
          120,
          121,
          122,
          123,
          124,
          125,
          126,
          127,
          128,
          129,
          130,
          131,
          132,
          133,
          134,
          135,
          136,
          137,
          138,
          139,
          140,
          141,
          142,
          143,
          144,
          145,
          146,
          147,
          148,
          149,
          150,
          151,
          152,
          153,
          154,
          155,
          156,
          157,
          158,
          159,
          160,
          161,
          162,
          163,
          164,
          165,
          166,
          167,
          168,
          169,
          170,
          171,
          172,
          173,
          174,
          175,
          176,
          177,
          178,
          179,
          180,
          181,
          182,
          183,
          184,
          185,
          186,
          187,
          188,
          189,
          190,
          191,
          192
        ],
        "AcquisitionTime": [
          "160512.665000",
          "160513.665000",
          "160514.665000",
          "160515.665000",
          "160516.665000",
          "160517.665000",
          "160518.665000",
          "160519.665000",
          "160520.665000",
          "160521.665000",
          "160522.665000",
          "160523.665000",
          "160524.665000",
          "160525.665000",
          "160526.665000",
          "160527.665000",
          "160528.665000",
          "160529.665000",
          "160530.665000",
          "160531.665000",
          "160532.665000",
          "160533.665000",
          "160534.665000",
          "160535.665000",
          "160536.665000",
          "160537.665000",
          "160538.665000",
          "160539.665000",
          "160540.665000",
          "160541.665000",
          "160542.665000",
          "160543.665000",
          "160544.665000",
          "160545.665000",
          "160546.665000",
          "160547.665000",
          "160548.665000",
          "160549.665000",
          "160550.665000",
          "160551.665000",
          "160552.665000",
          "160553.665000",
          "160554.665000",
          "160555.665000",
          "160556.665000",
          "160557.665000",
          "160558.665000",
          "160559.665000",
          "160600.665000",
          "160601.665000",
          "160602.665000",
          "160603.665000",
          "160604.665000",
          "160605.665000",
          "160606.665000",
          "160607.665000",
          "160608.665000",
          "160609.665000",
          "160610.665000",
          "160611.665000",
          "160612.665000",
          "160613.665000",
          "160614.665000",
          "160615.665000",
          "160616.665000",
          "160617.665000",
          "160618.665000",
          "160619.665000",
          "160620.665000",
          "160621.665000",
          "160622.665000",
          "160623.665000",
          "160624.665000",
          "160625.665000",
          "160626.665000",
          "160627.665000",
          "160628.665000",
          "160629.665000",
          "160630.665000",
          "160631.665000",
          "160632.665000",
          "160633.665000",
          "160634.665000",
          "160635.665000",
          "160636.665000",
          "160637.665000",
          "160638.665000",
          "160639.665000",
          "160640.665000",
          "160641.665000",
          "160642.665000",
          "160643.665000",
          "160644.665000",
          "160645.665000",
          "160646.665000",
          "160647.665000",
          "160648.665000",
          "160649.665000",
          "160650.665000",
          "160651.665000",
          "160652.665000",
          "160653.665000",
          "160654.665000",
          "160655.665000",
          "160656.665000",
          "160657.665000",
          "160658.665000",
          "160659.665000",
          "160700.665000",
          "160701.665000",
          "160702.665000",
          "160703.665000",
          "160704.665000",
          "160705.665000",
          "160706.665000",
          "160707.665000",
          "160708.665000",
          "160709.665000",
          "160710.665000",
          "160711.665000",
          "160712.665000",
          "160713.665000",
          "160714.665000",
          "160715.665000",
          "160716.665000",
          "160717.665000",
          "160718.665000",
          "160719.665000",
          "160720.665000",
          "160721.665000",
          "160722.665000",
          "160723.665000",
          "160724.665000",
          "160725.665000",
          "160726.665000",
          "160727.665000",
          "160728.665000",
          "160729.665000",
          "160730.665000",
          "160731.665000",
          "160732.665000",
          "160733.665000",
          "160734.665000",
          "160735.665000",
          "160736.665000",
          "160737.665000",
          "160738.665000",
          "160739.665000",
          "160740.665000",
          "160741.665000",
          "160742.665000",
          "160743.665000",
          "160744.665000",
          "160745.665000",
          "160746.665000",
          "160747.665000",
          "160748.665000",
          "160749.665000",
          "160750.665000",
          "160751.665000",
          "160752.665000",
          "160753.665000",
          "160754.665000",
          "160755.665000",
          "160756.665000",
          "160757.665000",
          "160758.665000",
          "160759.665000",
          "160800.665000",
          "160801.665000",
          "160802.665000",
          "160803.665000",
          "160804.665000",
          "160805.665000",
          "160806.665000",
          "160807.665000",
          "160808.665000",
          "160809.665000",
          "160810.665000",
          "160811.665000",
          "160812.665000",
          "160813.665000",
          "160814.665000",
          "160815.665000",
          "160816.665000",
          "160817.665000",
          "160818.665000",
          "160819.665000",
          "160820.665000",
          "160821.665000",
          "160822.665000",
          "160823.665000"
        ],
        "ContentTime": [
          "160624.557000",
          "160624.561000",
          "160624.564000",
          "160624.568000",
          "160624.570000",
          "160624.573000",
          "160624.576000",
          "160624.579000",
          "160624.582000",
          "160624.592000",
          "160624.595000",
          "160624.598000",
          "160624.600000",
          "160624.603000",
          "160624.606000",
          "160624.609000",
          "160624.612000",
          "160624.622000",
          "160624.625000",
          "160624.628000",
          "160624.631000",
          "160624.634000",
          "160624.637000",
          "160624.640000",
          "160624.643000",
          "160624.645000",
          "160624.648000",
          "160624.651000",
          "160624.654000",
          "160644.526000",
          "160644.529000",
          "160644.532000",
          "160644.535000",
          "160644.537000",
          "160644.540000",
          "160644.543000",
          "160644.546000",
          "160644.549000",
          "160644.552000",
          "160644.555000",
          "160644.558000",
          "160644.560000",
          "160644.563000",
          "160644.566000",
          "160644.569000",
          "160644.572000",
          "160644.575000",
          "160644.578000",
          "160644.581000",
          "160644.584000",
          "160644.587000",
          "160644.590000",
          "160644.592000",
          "160644.599000",
          "160644.602000",
          "160644.605000",
          "160644.608000",
          "160704.526000",
          "160704.529000",
          "160704.532000",
          "160704.534000",
          "160704.543000",
          "160704.546000",
          "160704.548000",
          "160704.551000",
          "160704.554000",
          "160704.557000",
          "160704.560000",
          "160704.563000",
          "160704.567000",
          "160704.570000",
          "160704.574000",
          "160704.578000",
          "160704.581000",
          "160704.584000",
          "160704.587000",
          "160704.590000",
          "160704.593000",
          "160704.596000",
          "160704.599000",
          "160704.602000",
          "160704.604000",
          "160704.607000",
          "160704.619000",
          "160704.624000",
          "160724.526000",
          "160724.529000",
          "160724.532000",
          "160724.535000",
          "160724.541000",
          "160724.544000",
          "160724.547000",
          "160724.550000",
          "160724.553000",
          "160724.556000",
          "160724.559000",
          "160724.562000",
          "160724.564000",
          "160724.567000",
          "160724.570000",
          "160724.573000",
          "160724.576000",
          "160724.579000",
          "160724.582000",
          "160724.585000",
          "160724.587000",
          "160724.590000",
          "160724.593000",
          "160724.612000",
          "160724.615000",
          "160724.618000",
          "160724.623000",
          "160724.626000",
          "160724.629000",
          "160744.526000",
          "160744.529000",
          "160744.532000",
          "160744.535000",
          "160744.538000",
          "160744.541000",
          "160744.544000",
          "160744.546000",
          "160744.549000",
          "160744.552000",
          "160744.555000",
          "160744.558000",
          "160744.561000",
          "160744.564000",
          "160744.567000",
          "160744.570000",
          "160744.573000",
          "160744.576000",
          "160744.579000",
          "160744.582000",
          "160744.585000",
          "160744.588000",
          "160744.590000",
          "160744.593000",
          "160744.596000",
          "160744.599000",
          "160744.602000",
          "160744.605000",
          "160804.525000",
          "160804.528000",
          "160804.531000",
          "160804.534000",
          "160804.537000",
          "160804.539000",
          "160804.542000",
          "160804.545000",
          "160804.548000",
          "160804.551000",
          "160804.554000",
          "160804.557000",
          "160804.560000",
          "160804.562000",
          "160804.565000",
          "160804.568000",
          "160804.571000",
          "160804.574000",
          "160804.577000",
          "160804.580000",
          "160804.583000",
          "160804.586000",
          "160804.589000",
          "160804.592000",
          "160804.594000",
          "160804.597000",
          "160804.600000",
          "160804.603000",
          "160824.525000",
          "160824.528000",
          "160824.531000",
          "160824.534000",
          "160824.537000",
          "160824.539000",
          "160824.542000",
          "160824.545000",
          "160824.548000",
          "160824.551000",
          "160824.554000",
          "160824.557000",
          "160824.560000",
          "160824.562000",
          "160824.565000",
          "160824.568000",
          "160824.571000",
          "160824.575000",
          "160824.578000",
          "160824.581000",
          "160825.817000",
          "160825.820000"
        ],
        "InstanceCreationTime": [
          "160624.557000",
          "160624.561000",
          "160624.564000",
          "160624.568000",
          "160624.570000",
          "160624.573000",
          "160624.576000",
          "160624.579000",
          "160624.582000",
          "160624.592000",
          "160624.595000",
          "160624.598000",
          "160624.600000",
          "160624.603000",
          "160624.606000",
          "160624.609000",
          "160624.612000",
          "160624.622000",
          "160624.625000",
          "160624.628000",
          "160624.631000",
          "160624.634000",
          "160624.637000",
          "160624.640000",
          "160624.643000",
          "160624.645000",
          "160624.648000",
          "160624.651000",
          "160624.654000",
          "160644.526000",
          "160644.529000",
          "160644.532000",
          "160644.535000",
          "160644.537000",
          "160644.540000",
          "160644.543000",
          "160644.546000",
          "160644.549000",
          "160644.552000",
          "160644.555000",
          "160644.558000",
          "160644.560000",
          "160644.563000",
          "160644.566000",
          "160644.569000",
          "160644.572000",
          "160644.575000",
          "160644.578000",
          "160644.581000",
          "160644.584000",
          "160644.587000",
          "160644.590000",
          "160644.592000",
          "160644.599000",
          "160644.602000",
          "160644.605000",
          "160644.608000",
          "160704.526000",
          "160704.529000",
          "160704.532000",
          "160704.534000",
          "160704.543000",
          "160704.546000",
          "160704.548000",
          "160704.551000",
          "160704.554000",
          "160704.557000",
          "160704.560000",
          "160704.563000",
          "160704.567000",
          "160704.570000",
          "160704.574000",
          "160704.578000",
          "160704.581000",
          "160704.584000",
          "160704.587000",
          "160704.590000",
          "160704.593000",
          "160704.596000",
          "160704.599000",
          "160704.602000",
          "160704.604000",
          "160704.607000",
          "160704.619000",
          "160704.624000",
          "160724.526000",
          "160724.529000",
          "160724.532000",
          "160724.535000",
          "160724.541000",
          "160724.544000",
          "160724.547000",
          "160724.550000",
          "160724.553000",
          "160724.556000",
          "160724.559000",
          "160724.562000",
          "160724.564000",
          "160724.567000",
          "160724.570000",
          "160724.573000",
          "160724.576000",
          "160724.579000",
          "160724.582000",
          "160724.585000",
          "160724.587000",
          "160724.590000",
          "160724.593000",
          "160724.612000",
          "160724.615000",
          "160724.618000",
          "160724.623000",
          "160724.626000",
          "160724.629000",
          "160744.526000",
          "160744.529000",
          "160744.532000",
          "160744.535000",
          "160744.538000",
          "160744.541000",
          "160744.544000",
          "160744.546000",
          "160744.549000",
          "160744.552000",
          "160744.555000",
          "160744.558000",
          "160744.561000",
          "160744.564000",
          "160744.567000",
          "160744.570000",
          "160744.573000",
          "160744.576000",
          "160744.579000",
          "160744.582000",
          "160744.585000",
          "160744.588000",
          "160744.590000",
          "160744.593000",
          "160744.596000",
          "160744.599000",
          "160744.602000",
          "160744.605000",
          "160804.525000",
          "160804.528000",
          "160804.531000",
          "160804.534000",
          "160804.537000",
          "160804.539000",
          "160804.542000",
          "160804.545000",
          "160804.548000",
          "160804.551000",
          "160804.554000",
          "160804.557000",
          "160804.560000",
          "160804.562000",
          "160804.565000",
          "160804.568000",
          "160804.571000",
          "160804.574000",
          "160804.577000",
          "160804.580000",
          "160804.583000",
          "160804.586000",
          "160804.589000",
          "160804.592000",
          "160804.594000",
          "160804.597000",
          "160804.600000",
          "160804.603000",
          "160824.525000",
          "160824.528000",
          "160824.531000",
          "160824.534000",
          "160824.537000",
          "160824.539000",
          "160824.542000",
          "160824.545000",
          "160824.548000",
          "160824.551000",
          "160824.554000",
          "160824.557000",
          "160824.560000",
          "160824.562000",
          "160824.565000",
          "160824.568000",
          "160824.571000",
          "160824.575000",
          "160824.578000",
          "160824.581000",
          "160825.817000",
          "160825.820000"
        ],
        "InstanceNumber": [
          1,
          2,
          3,
          4,
          5,
          6,
          7,
          8,
          9,
          10,
          11,
          12,
          13,
          14,
          15,
          16,
          17,
          18,
          19,
          20,
          21,
          22,
          23,
          24,
          25,
          26,
          27,
          28,
          29,
          30,
          31,
          32,
          33,
          34,
          35,
          36,
          37,
          38,
          39,
          40,
          41,
          42,
          43,
          44,
          45,
          46,
          47,
          48,
          49,
          50,
          51,
          52,
          53,
          54,
          55,
          56,
          57,
          58,
          59,
          60,
          61,
          62,
          63,
          64,
          65,
          66,
          67,
          68,
          69,
          70,
          71,
          72,
          73,
          74,
          75,
          76,
          77,
          78,
          79,
          80,
          81,
          82,
          83,
          84,
          85,
          86,
          87,
          88,
          89,
          90,
          91,
          92,
          93,
          94,
          95,
          96,
          97,
          98,
          99,
          100,
          101,
          102,
          103,
          104,
          105,
          106,
          107,
          108,
          109,
          110,
          111,
          112,
          113,
          114,
          115,
          116,
          117,
          118,
          119,
          120,
          121,
          122,
          123,
          124,
          125,
          126,
          127,
          128,
          129,
          130,
          131,
          132,
          133,
          134,
          135,
          136,
          137,
          138,
          139,
          140,
          141,
          142,
          143,
          144,
          145,
          146,
          147,
          148,
          149,
          150,
          151,
          152,
          153,
          154,
          155,
          156,
          157,
          158,
          159,
          160,
          161,
          162,
          163,
          164,
          165,
          166,
          167,
          168,
          169,
          170,
          171,
          172,
          173,
          174,
          175,
          176,
          177,
          178,
          179,
          180,
          181,
          182,
          183,
          184,
          185,
          186,
          187,
          188,
          189,
          190,
          191,
          192
        ],
        "LargestImagePixelValue": [
          36861,
          36319,
          35915,
          35359,
          35879,
          35812,
          35241,
          35739,
          35221,
          35589,
          35467,
          35007,
          35676,
          35666,
          35386,
          35842,
          35633,
          35831,
          35642,
          35547,
          35580,
          35028,
          35463,
          35149,
          35085,
          35202,
          35540,
          35535,
          35336,
          35474,
          35477,
          35459,
          35652,
          35815,
          35732,
          35773,
          36170,
          35455,
          35787,
          35858,
          35975,
          35594,
          35725,
          35608,
          35930,
          35692,
          35248,
          35187,
          35381,
          35290,
          35437,
          35503,
          35506,
          35208,
          35283,
          35484,
          35322,
          35436,
          35489,
          35151,
          35688,
          35312,
          35275,
          35653,
          35436,
          35328,
          35349,
          36200,
          35711,
          35246,
          35615,
          35224,
          35384,
          34799,
          34822,
          34830,
          34905,
          34937,
          35141,
          35107,
          35262,
          35381,
          34709,
          35340,
