{
  "aor": 0.0006069270833333333,
  "aqi": 0.005226005885416667,
  "bids_meta": {
    "AcquisitionMatrixPE": 104,
    "AcquisitionNumber": 1,
    "AcquisitionTime": "13:46:2.462500",
    "BandwidthPerPixelPhaseEncode": 16.578,
    "BaseResolution": 104,
    "BodyPartExamined": "BRAIN",
    "CogAtlasID": "TODO",
    "ConsistencyInfo": "N4_VE11C_LATEST_20160120",
    "ConversionSoftware": "dcm2niix",
    "ConversionSoftwareVersion": "v1.0.20190902",
    "DerivedVendorReportedEchoSpacing": 0.000580009,
    "DeviceSerialNumber": "166018",
    "DwellTime": 2.1e-06,
    "EchoTime": 0.037,
    "EchoTrainLength": 104,
    "EffectiveEchoSpacing": 0.000580009,
    "FlipAngle": 68,
    "ImageComments": "Unaliased_MB6_PE3_LB",
    "ImageOrientationPatientDICOM": [
      0.99682,
      0.055456,
      0.0572268,
      -0.0532879,
      0.997827,
      -0.0387416
    ],
    "ImageType": [
      "ORIGINAL",
      "PRIMARY",
      "M",
      "MB",
      "ND",
      "MOSAIC"
    ],
    "ImagingFrequency": 123.191,
    "InPlanePhaseEncodingDirectionDICOM": "COL",
    "InstitutionAddress": "Washington_Place_6_NYC_NYC_US_10003",
    "InstitutionName": "NYU_-_CBI",
    "InstitutionalDepartmentName": "Department",
    "MRAcquisitionType": "2D",
    "MagneticFieldStrength": 3,
    "Manufacturer": "Siemens",
    "ManufacturersModelName": "Prisma",
    "Modality": "MR",
    "MultibandAccelerationFactor": 6,
    "NumberOfVolumes": 192,
    "PartialFourier": 1,
    "PatientPosition": "HFS",
    "PercentPhaseFOV": 100,
    "PhaseEncodingDirection": "j",
    "PhaseEncodingSteps": 104,
    "PhaseResolution": 1,
    "PixelBandwidth": 2290,
    "ProcedureStepDescription": "Investigators_Winawer",
    "ProtocolName": "cmrr_mbepi_s6_2mm_66sl_PA_task-prf",
    "PulseSequenceDetails": "%CustomerSeq%_cmrr_mbep2d_bold",
    "ReceiveCoilActiveElements": "HC1-7",
    "ReceiveCoilName": "HeadNeck_64",
    "ReconMatrixPE": 104,
    "RepetitionTime": 1,
    "SAR": 0.0678238,
    "ScanOptions": "FS",
    "ScanningSequence": "EP",
    "SequenceName": "epfid2d1_104",
    "SequenceVariant": "SK_SS",
    "SeriesDescription": "cmrr_mbepi_s6_2mm_66sl_PA_task-prf",
    "SeriesNumber": 12,
    "ShimSetting": [
      280,
      -12623,
      -8444,
      448,
      116,
      -83,
      -27,
      56
    ],
    "SliceThickness": 2,
    "SliceTiming": [
      0,
      0.535,
      0.09,
      0.625,
      0.18,
      0.7125,
      0.2675,
      0.8025,
      0.3575,
      0.8925,
      0.4475,
      0,
      0.535,
      0.09,
      0.625,
      0.18,
      0.7125,
      0.2675,
      0.8025,
      0.3575,
      0.8925,
      0.4475,
      0,
      0.535,
      0.09,
      0.625,
      0.18,
      0.7125,
      0.2675,
      0.8025,
      0.3575,
      0.8925,
      0.4475,
      0,
      0.535,
      0.09,
      0.625,
      0.18,
      0.7125,
      0.2675,
      0.8025,
      0.3575,
      0.8925,
      0.4475,
      0,
      0.535,
      0.09,
      0.625,
      0.18,
      0.7125,
      0.2675,
      0.8025,
      0.3575,
      0.8925,
      0.4475,
      0,
      0.535,
      0.09,
      0.625,
      0.18,
      0.7125,
      0.2675,
      0.8025,
      0.3575,
      0.8925,
      0.4475
    ],
    "SoftwareVersions": "syngo_MR_E11",
    "SpacingBetweenSlices": 2,
    "StationName": "AWP166018",
    "TaskName": "prf",
    "TotalReadoutTime": 0.0597409,
    "TxRefAmp": 203.414,
    "WipMemBlock": "2511c6c7-107a-436b-ac25-d9079d357a75||Sequence: R016 ve11c/master r/8780670; Nov 27 2017 15:05:12 by eja",
    "acq_id": "PA",
    "dataset": "unknown",
    "dcmmeta_affine": [
      [
        -1.993639588356018,
        -0.10657580196857452,
        0.11850181221961975,
        109.31697845458984
      ],
      [
        -0.11091196537017822,
        1.995654821395874,
        -0.07113789021968842,
        -65.76241302490234
      ],
      [
        0.11445355415344238,
        0.07748328894376755,
        1.9952185153961182,
        -48.17840576171875
      ],
      [
        0.0,
        0.0,
        0.0,
        1.0
      ]
    ],
    "dcmmeta_reorient_transform": [
      [
        0.0,
        -1.0,
        0.0,
        103.0
      ],
      [
        1.0,
        0.0,
        0.0,
        0.0
      ],
      [
        0.0,
        0.0,
        1.0,
        0.0
      ],
      [
        0.0,
        0.0,
        0.0,
        1.0
      ]
    ],
    "dcmmeta_shape": [
      104,
      104,
      66,
      192
    ],
    "dcmmeta_slice_dim": 2,
    "dcmmeta_version": 0.6,
    "global": {
      "const": {
        "AccessionNumber": "k2p9ooaw",
        "AcquisitionMatrix": [
          104,
          0,
          0,
          104
        ],
        "AngioFlag": "N",
        "BitsAllocated": 16,
        "BitsStored": 16,
        "BodyPartExamined": "BRAIN",
        "Columns": 936,
        "EchoNumbers": 1,
        "EchoTime": 37.0,
        "EchoTrainLength": 104,
        "FlipAngle": 68.0,
        "HighBit": 15,
        "ImageOrientationPatient": [
          0.99681980817365,
          0.05545598093937,
          0.05722677879022,
          -0.0532879025573,
          0.99782738210547,
          -0.0387416437648
        ],
        "ImagePositionPatient": [
          -883.35821322076,
          -1016.1217858544,
          -55.577259571058
        ],
        "ImageType": [
          "ORIGINAL",
          "PRIMARY",
          "M",
          "MB",
          "ND",
          "MOSAIC"
        ],
        "ImagedNucleus": "1H",
        "ImagingFrequency": 123.190745,
        "InPlanePhaseEncodingDirection": "COL",
        "MRAcquisitionType": "2D",
        "MagneticFieldStrength": 3.0,
        "Manufacturer": "SIEMENS",
        "ManufacturerModelName": "Prisma",
        "Modality": "MR",
        "NumberOfAverages": 1.0,
        "NumberOfPhaseEncodingSteps": 104,
        "PercentPhaseFieldOfView": 100.0,
        "PercentSampling": 100.0,
        "PerformedProcedureStepStartTime": "133254.275000",
        "PhotometricInterpretation": "MONOCHROME2",
        "PixelBandwidth": 2290.0,
        "PixelRepresentation": 0,
        "PixelSpacing": [
          2.0,
          2.0
        ],
        "ProtocolName": "cmrr_mbepi_s6_2mm_66sl_PA_task-prf",
        "RepetitionTime": 1000.0,
        "Rows": 936,
        "SAR": 0.06782381433557,
        "SamplesPerPixel": 1,
        "ScanOptions": "FS",
        "ScanningSequence": "EP",
        "SequenceName": "epfid2d1_104",
        "SequenceVariant": [
          "SK",
          "SS"
        ],
        "SeriesDescription": "cmrr_mbepi_s6_2mm_66sl_PA_task-prf",
        "SeriesNumber": 12,
        "SeriesTime": "134715.373000",
        "SliceLocation": -39.246993478625,
        "SliceThickness": 2.0,
        "SmallestImagePixelValue": 0,
        "SoftwareVersions": "syngo MR E11",
        "SpacingBetweenSlices": 2.000000075866,
        "SpecificCharacterSet": "ISO_IR 100",
        "StudyID": "1",
        "StudyTime": "133254.141000",
        "TransmitCoilName": "Body",
        "VariableFlipAngleFlag": "N",
        "WindowCenterWidthExplanation": "Algo1",
        "dBdt": 0.0
      },
      "slices": {}
    },
    "modality": "bold",
    "run_id": 1,
    "session_id": "nyu3t01",
    "subject_id": "wlsubj079",
    "task_id": "prf",
    "time": {
      "samples": {
        "AcquisitionNumber": [
          1,
          2,
          3,
          4,
          5,
          6,
          7,
          8,
          9,
          10,
          11,
          12,
          13,
          14,
          15,
          16,
          17,
          18,
          19,
          20,
          21,
          22,
          23,
          24,
          25,
          26,
          27,
          28,
          29,
          30,
          31,
          32,
          33,
          34,
          35,
          36,
          37,
          38,
          39,
          40,
          41,
          42,
          43,
          44,
          45,
          46,
          47,
          48,
          49,
          50,
          51,
          52,
          53,
          54,
          55,
          56,
          57,
          58,
          59,
          60,
          61,
          62,
          63,
          64,
          65,
          66,
          67,
          68,
          69,
          70,
          71,
          72,
          73,
          74,
          75,
          76,
          77,
          78,
          79,
          80,
          81,
          82,
          83,
          84,
          85,
          86,
          87,
          88,
          89,
          90,
          91,
          92,
          93,
          94,
          95,
          96,
          97,
          98,
          99,
          100,
          101,
          102,
          103,
          104,
          105,
          106,
          107,
          108,
          109,
          110,
          111,
          112,
          113,
          114,
          115,
          116,
          117,
          118,
          119,
          120,
          121,
          122,
          123,
          124,
          125,
          126,
          127,
          128,
          129,
          130,
          131,
          132,
          133,
          134,
          135,
          136,
          137,
          138,
          139,
          140,
          141,
          142,
          143,
          144,
          145,
          146,
          147,
          148,
          149,
          150,
          151,
          152,
          153,
          154,
          155,
          156,
          157,
          158,
          159,
          160,
          161,
          162,
          163,
          164,
          165,
          166,
          167,
          168,
          169,
          170,
          171,
          172,
          173,
          174,
          175,
          176,
          177,
          178,
          179,
          180,
          181,
          182,
          183,
          184,
          185,
          186,
          187,
          188,
          189,
          190,
          191,
          192
        ],
        "AcquisitionTime": [
          "134602.462500",
          "134603.462500",
          "134604.462500",
          "134605.462500",
          "134606.462500",
          "134607.462500",
          "134608.462500",
          "134609.462500",
          "134610.462500",
          "134611.462500",
          "134612.462500",
          "134613.462500",
          "134614.462500",
          "134615.462500",
          "134616.462500",
          "134617.462500",
          "134618.462500",
          "134619.462500",
          "134620.462500",
          "134621.462500",
          "134622.462500",
          "134623.462500",
          "134624.462500",
          "134625.462500",
          "134626.462500",
          "134627.462500",
          "134628.462500",
          "134629.462500",
          "134630.462500",
          "134631.462500",
          "134632.462500",
          "134633.462500",
          "134634.462500",
          "134635.462500",
          "134636.462500",
          "134637.462500",
          "134638.462500",
          "134639.462500",
          "134640.462500",
          "134641.462500",
          "134642.462500",
          "134643.462500",
          "134644.462500",
          "134645.462500",
          "134646.462500",
          "134647.462500",
          "134648.462500",
          "134649.462500",
          "134650.462500",
          "134651.462500",
          "134652.462500",
          "134653.462500",
          "134654.462500",
          "134655.462500",
          "134656.462500",
          "134657.462500",
          "134658.462500",
          "134659.462500",
          "134700.462500",
          "134701.462500",
          "134702.462500",
          "134703.462500",
          "134704.462500",
          "134705.462500",
          "134706.462500",
          "134707.462500",
          "134708.462500",
          "134709.462500",
          "134710.462500",
          "134711.462500",
          "134712.462500",
          "134713.462500",
          "134714.462500",
          "134715.462500",
          "134716.462500",
          "134717.462500",
          "134718.462500",
          "134719.462500",
          "134720.462500",
          "134721.462500",
          "134722.462500",
          "134723.462500",
          "134724.462500",
          "134725.462500",
          "134726.462500",
          "134727.462500",
          "134728.462500",
          "134729.462500",
          "134730.462500",
          "134731.462500",
          "134732.462500",
          "134733.462500",
          "134734.462500",
          "134735.462500",
          "134736.462500",
          "134737.462500",
          "134738.462500",
          "134739.462500",
          "134740.462500",
          "134741.462500",
          "134742.462500",
          "134743.462500",
          "134744.462500",
          "134745.462500",
          "134746.462500",
          "134747.462500",
          "134748.462500",
          "134749.462500",
          "134750.462500",
          "134751.462500",
          "134752.462500",
          "134753.462500",
          "134754.462500",
          "134755.462500",
          "134756.462500",
          "134757.462500",
          "134758.462500",
          "134759.462500",
          "134800.462500",
          "134801.462500",
          "134802.462500",
          "134803.462500",
          "134804.462500",
          "134805.462500",
          "134806.462500",
          "134807.462500",
          "134808.462500",
          "134809.462500",
          "134810.462500",
          "134811.462500",
          "134812.462500",
          "134813.462500",
          "134814.462500",
          "134815.462500",
          "134816.462500",
          "134817.462500",
          "134818.462500",
          "134819.462500",
          "134820.462500",
          "134821.462500",
          "134822.462500",
          "134823.462500",
          "134824.462500",
          "134825.462500",
          "134826.462500",
          "134827.462500",
          "134828.462500",
          "134829.462500",
          "134830.462500",
          "134831.462500",
          "134832.462500",
          "134833.462500",
          "134834.462500",
          "134835.462500",
          "134836.462500",
          "134837.462500",
          "134838.462500",
          "134839.462500",
          "134840.462500",
          "134841.462500",
          "134842.462500",
          "134843.462500",
          "134844.462500",
          "134845.462500",
          "134846.462500",
          "134847.462500",
          "134848.462500",
          "134849.462500",
          "134850.462500",
          "134851.462500",
          "134852.462500",
          "134853.462500",
          "134854.462500",
          "134855.462500",
          "134856.462500",
          "134857.462500",
          "134858.462500",
          "134859.462500",
          "134900.462500",
          "134901.462500",
          "134902.462500",
          "134903.462500",
          "134904.462500",
          "134905.462500",
          "134906.462500",
          "134907.462500",
          "134908.462500",
          "134909.462500",
          "134910.462500",
          "134911.462500",
          "134912.462500",
          "134913.462500"
        ],
        "ContentTime": [
          "134715.376000",
          "134715.383000",
          "134715.386000",
          "134715.389000",
          "134715.392000",
          "134715.395000",
          "134715.398000",
          "134715.401000",
          "134715.404000",
          "134715.407000",
          "134715.410000",
          "134715.413000",
          "134715.416000",
          "134715.419000",
          "134715.429000",
          "134715.432000",
          "134715.435000",
          "134715.438000",
          "134715.441000",
          "134715.444000",
          "134715.447000",
          "134715.450000",
          "134715.453000",
          "134715.456000",
          "134715.459000",
          "134715.462000",
          "134715.465000",
          "134715.470000",
          "134715.473000",
          "134715.476000",
          "134715.479000",
          "134715.482000",
          "134735.348000",
          "134735.351000",
          "134735.354000",
          "134735.357000",
          "134735.360000",
          "134735.363000",
          "134735.366000",
          "134735.369000",
          "134735.372000",
          "134735.375000",
          "134735.378000",
          "134735.390000",
          "134735.393000",
          "134735.396000",
          "134735.398000",
          "134735.401000",
          "134735.404000",
          "134735.407000",
          "134735.410000",
          "134735.413000",
          "134735.416000",
          "134735.419000",
          "134735.422000",
          "134735.425000",
          "134735.428000",
          "134735.431000",
          "134735.434000",
          "134735.437000",
          "134755.348000",
          "134755.351000",
          "134755.354000",
          "134755.357000",
          "134755.360000",
          "134755.363000",
          "134755.366000",
          "134755.369000",
          "134755.372000",
          "134755.375000",
          "134755.378000",
          "134755.381000",
          "134755.384000",
          "134755.387000",
          "134755.390000",
          "134755.393000",
          "134755.396000",
          "134755.399000",
          "134755.401000",
          "134755.404000",
          "134755.407000",
          "134755.410000",
          "134755.419000",
          "134755.422000",
          "134755.438000",
          "134755.441000",
          "134755.444000",
          "134755.447000",
          "134815.349000",
          "134815.352000",
          "134815.355000",
          "134815.358000",
          "134815.361000",
          "134815.364000",
          "134815.367000",
          "134815.370000",
          "134815.373000",
          "134815.376000",
          "134815.379000",
          "134815.382000",
          "134815.385000",
          "134815.388000",
          "134815.391000",
          "134815.393000",
          "134815.396000",
          "134815.399000",
          "134815.402000",
          "134815.405000",
          "134815.408000",
          "134815.411000",
          "134815.414000",
          "134815.417000",
          "134815.420000",
          "134815.423000",
          "134815.426000",
          "134815.429000",
          "134815.432000",
          "134835.348000",
          "134835.351000",
          "134835.354000",
          "134835.357000",
          "134835.360000",
          "134835.363000",
          "134835.366000",
          "134835.369000",
          "134835.372000",
          "134835.375000",
          "134835.378000",
          "134835.381000",
          "134835.384000",
          "134835.386000",
          "134835.389000",
          "134835.393000",
          "134835.395000",
          "134835.398000",
          "134835.401000",
          "134835.404000",
          "134835.407000",
          "134835.410000",
          "134835.413000",
          "134835.416000",
          "134835.419000",
          "134835.422000",
          "134835.425000",
          "134835.428000",
          "134855.348000",
          "134855.357000",
          "134855.360000",
          "134855.363000",
          "134855.366000",
          "134855.369000",
          "134855.372000",
          "134855.375000",
          "134855.378000",
          "134855.381000",
          "134855.384000",
          "134855.387000",
          "134855.390000",
          "134855.393000",
          "134855.396000",
          "134855.399000",
          "134855.402000",
          "134855.405000",
          "134855.408000",
          "134855.411000",
          "134855.414000",
          "134855.417000",
          "134855.419000",
          "134855.422000",
          "134855.425000",
          "134855.428000",
          "134915.401000",
          "134915.404000",
          "134915.407000",
          "134915.410000",
          "134915.413000",
          "134915.416000",
          "134915.419000",
          "134915.422000",
          "134915.425000",
          "134915.428000",
          "134915.431000",
          "134915.434000",
          "134915.437000",
          "134915.440000",
          "134915.443000",
          "134915.446000",
          "134915.449000",
          "134915.452000",
          "134915.455000",
          "134915.458000",
          "134915.461000"
        ],
        "InstanceCreationTime": [
          "134715.376000",
          "134715.383000",
          "134715.386000",
          "134715.389000",
          "134715.392000",
          "134715.395000",
          "134715.398000",
          "134715.401000",
          "134715.404000",
          "134715.407000",
          "134715.410000",
          "134715.413000",
          "134715.416000",
          "134715.419000",
          "134715.429000",
          "134715.432000",
          "134715.435000",
          "134715.438000",
          "134715.441000",
          "134715.444000",
          "134715.447000",
          "134715.450000",
          "134715.453000",
          "134715.456000",
          "134715.459000",
          "134715.462000",
          "134715.465000",
          "134715.470000",
          "134715.473000",
          "134715.476000",
          "134715.479000",
          "134715.482000",
          "134735.348000",
          "134735.351000",
          "134735.354000",
          "134735.357000",
          "134735.360000",
          "134735.363000",
          "134735.366000",
          "134735.369000",
          "134735.372000",
          "134735.375000",
          "134735.378000",
          "134735.390000",
          "134735.393000",
          "134735.396000",
          "134735.398000",
          "134735.401000",
          "134735.404000",
          "134735.407000",
          "134735.410000",
          "134735.413000",
          "134735.416000",
          "134735.419000",
          "134735.422000",
          "134735.425000",
          "134735.428000",
          "134735.431000",
          "134735.434000",
          "134735.437000",
          "134755.348000",
          "134755.351000",
          "134755.354000",
          "134755.357000",
          "134755.360000",
          "134755.363000",
          "134755.366000",
          "134755.369000",
          "134755.372000",
          "134755.375000",
          "134755.378000",
          "134755.381000",
          "134755.384000",
          "134755.387000",
          "134755.390000",
          "134755.393000",
          "134755.396000",
          "134755.399000",
          "134755.401000",
          "134755.404000",
          "134755.407000",
          "134755.410000",
          "134755.419000",
          "134755.422000",
          "134755.438000",
          "134755.441000",
          "134755.444000",
          "134755.447000",
          "134815.349000",
          "134815.352000",
          "134815.355000",
          "134815.358000",
          "134815.361000",
          "134815.364000",
          "134815.367000",
          "134815.370000",
          "134815.373000",
          "134815.376000",
          "134815.379000",
          "134815.382000",
          "134815.385000",
          "134815.388000",
          "134815.391000",
          "134815.393000",
          "134815.396000",
          "134815.399000",
          "134815.402000",
          "134815.405000",
          "134815.408000",
          "134815.411000",
          "134815.414000",
          "134815.417000",
          "134815.420000",
          "134815.423000",
          "134815.426000",
          "134815.429000",
          "134815.432000",
          "134835.348000",
          "134835.351000",
          "134835.354000",
          "134835.357000",
          "134835.360000",
          "134835.363000",
          "134835.366000",
          "134835.369000",
          "134835.372000",
          "134835.375000",
          "134835.378000",
          "134835.381000",
          "134835.384000",
          "134835.386000",
          "134835.389000",
          "134835.393000",
          "134835.395000",
          "134835.398000",
          "134835.401000",
          "134835.404000",
          "134835.407000",
          "134835.410000",
          "134835.413000",
          "134835.416000",
          "134835.419000",
          "134835.422000",
          "134835.425000",
          "134835.428000",
          "134855.348000",
          "134855.357000",
          "134855.360000",
          "134855.363000",
          "134855.366000",
          "134855.369000",
          "134855.372000",
          "134855.375000",
          "134855.378000",
          "134855.381000",
          "134855.384000",
          "134855.387000",
          "134855.390000",
          "134855.393000",
          "134855.396000",
          "134855.399000",
          "134855.402000",
          "134855.405000",
          "134855.408000",
          "134855.411000",
          "134855.414000",
          "134855.417000",
          "134855.419000",
          "134855.422000",
          "134855.425000",
          "134855.428000",
          "134915.401000",
          "134915.404000",
          "134915.407000",
          "134915.410000",
          "134915.413000",
          "134915.416000",
          "134915.419000",
          "134915.422000",
          "134915.425000",
          "134915.428000",
          "134915.431000",
          "134915.434000",
          "134915.437000",
          "134915.440000",
          "134915.443000",
          "134915.446000",
          "134915.449000",
          "134915.452000",
          "134915.455000",
          "134915.458000",
          "134915.461000"
        ],
        "InstanceNumber": [
          1,
          2,
          3,
          4,
          5,
          6,
          7,
          8,
          9,
          10,
          11,
          12,
          13,
          14,
          15,
          16,
          17,
          18,
          19,
          20,
          21,
          22,
          23,
          24,
          25,
          26,
          27,
          28,
          29,
          30,
          31,
          32,
          33,
          34,
          35,
          36,
          37,
          38,
          39,
          40,
          41,
          42,
          43,
          44,
          45,
          46,
          47,
          48,
          49,
          50,
          51,
          52,
          53,
          54,
          55,
          56,
          57,
          58,
          59,
          60,
          61,
          62,
          63,
          64,
          65,
          66,
          67,
          68,
          69,
          70,
          71,
          72,
          73,
          74,
          75,
          76,
          77,
          78,
          79,
          80,
          81,
          82,
          83,
          84,
          85,
          86,
          87,
          88,
          89,
          90,
          91,
          92,
          93,
          94,
          95,
          96,
          97,
          98,
          99,
          100,
          101,
          102,
          103,
          104,
          105,
          106,
          107,
          108,
          109,
          110,
          111,
          112,
          113,
          114,
          115,
          116,
          117,
          118,
          119,
          120,
          121,
          122,
          123,
          124,
          125,
          126,
          127,
          128,
          129,
          130,
          131,
          132,
          133,
          134,
          135,
          136,
          137,
          138,
          139,
          140,
          141,
          142,
          143,
          144,
          145,
          146,
          147,
          148,
          149,
          150,
          151,
          152,
          153,
          154,
          155,
          156,
          157,
          158,
          159,
          160,
          161,
          162,
          163,
          164,
          165,
          166,
          167,
          168,
          169,
          170,
          171,
          172,
          173,
          174,
          175,
          176,
          177,
          178,
          179,
          180,
          181,
          182,
          183,
          184,
          185,
          186,
          187,
          188,
          189,
          190,
          191,
          192
        ],
        "LargestImagePixelValue": [
          40567,
          40017,
          39360,
          38588,
          38747,
          38329,
          38351,
          38292,
          37920,
          38489,
          38065,
          38225,
          37969,
          38270,
          38113,
          38204,
          38161,
          38103,
          38051,
          38274,
          37980,
          38118,
          37799,
          37563,
          37962,
          38099,
          37808,
          38322,
          38220,
          37997,
          38030,
          38100,
          37833,
          38049,
          38036,
          38067,
          38163,
          38168,
          38296,
          38289,
          38029,
          38090,
          38549,
          38664,
          38280,
          38752,
          38673,
          38734,
          38251,
          38373,
          38155,
          38021,
          38304,
          38454,
          38101,
          38313,
          38156,
          38299,
          38202,
          38201,
          38630,
          38080,
          38415,
          38325,
          38416,
          38172,
          38759,
          38123,
          38512,
          38172,
          38590,
          38715,
          38660,
          38166,
          38247,
          38015,
          38688,
          38511,
          38305,
          38576,
          38394,
          38467,
          38430,
