{
  "aor": 0.0007243455497382197,
  "aqi": 0.007328415863874344,
  "bids_meta": {
    "AcquisitionMatrixPE": 104,
    "AcquisitionNumber": 1,
    "AcquisitionTime": "14:56:54.835000",
    "BandwidthPerPixelPhaseEncode": 16.578,
    "BaseResolution": 104,
    "BodyPartExamined": "BRAIN",
    "CogAtlasID": "TODO",
    "ConsistencyInfo": "N4_VE11C_LATEST_20160120",
    "ConversionSoftware": "dcm2niix",
    "ConversionSoftwareVersion": "v1.0.20190902",
    "DerivedVendorReportedEchoSpacing": 0.000580009,
    "DeviceSerialNumber": "166018",
    "DwellTime": 2.1e-06,
    "EchoTime": 0.037,
    "EchoTrainLength": 104,
    "EffectiveEchoSpacing": 0.000580009,
    "FlipAngle": 68,
    "ImageComments": "Unaliased_MB6_PE3_LB",
    "ImageOrientationPatientDICOM": [
      0.999903,
      0.00927368,
      0.0104104,
      -0.00698073,
      0.979372,
      -0.201945
    ],
    "ImageType": [
      "ORIGINAL",
      "PRIMARY",
      "M",
      "MB",
      "ND",
      "MOSAIC"
    ],
    "ImagingFrequency": 123.191,
    "InPlanePhaseEncodingDirectionDICOM": "COL",
    "InstitutionAddress": "Washington_Place_6_NYC_NYC_US_10003",
    "InstitutionName": "NYU_-_CBI",
    "InstitutionalDepartmentName": "Department",
    "MRAcquisitionType": "2D",
    "MagneticFieldStrength": 3,
    "Manufacturer": "Siemens",
    "ManufacturersModelName": "Prisma",
    "Modality": "MR",
    "MultibandAccelerationFactor": 6,
    "NumberOfVolumes": 192,
    "PartialFourier": 1,
    "PatientPosition": "HFS",
    "PercentPhaseFOV": 100,
    "PhaseEncodingDirection": "j",
    "PhaseEncodingSteps": 104,
    "PhaseResolution": 1,
    "PixelBandwidth": 2290,
    "ProcedureStepDescription": "Investigators_Winawer",
    "ProtocolName": "cmrr_mbepi_task_prf",
    "PulseSequenceDetails": "%CustomerSeq%_cmrr_mbep2d_bold",
    "ReceiveCoilActiveElements": "HC1-7",
    "ReceiveCoilName": "HeadNeck_64",
    "ReconMatrixPE": 104,
    "RepetitionTime": 1,
    "SAR": 0.0698377,
    "ScanOptions": "FS",
    "ScanningSequence": "EP",
    "SequenceName": "epfid2d1_104",
    "SequenceVariant": "SK_SS",
    "SeriesDescription": "cmrr_mbepi_task_prf",
    "SeriesNumber": 8,
    "ShimSetting": [
      251,
      -12561,
      -8501,
      312,
      -65,
      -71,
      -3,
      16
    ],
    "SliceThickness": 2,
    "SliceTiming": [
      0,
      0.535,
      0.09,
      0.6225,
      0.1775,
      0.7125,
      0.2675,
      0.8025,
      0.3575,
      0.89,
      0.445,
      0,
      0.535,
      0.09,
      0.6225,
      0.1775,
      0.7125,
      0.2675,
      0.8025,
      0.3575,
      0.89,
      0.445,
      0,
      0.535,
      0.09,
      0.6225,
      0.1775,
      0.7125,
      0.2675,
      0.8025,
      0.3575,
      0.89,
      0.445,
      0,
      0.535,
      0.09,
      0.6225,
      0.1775,
      0.7125,
      0.2675,
      0.8025,
      0.3575,
      0.89,
      0.445,
      0,
      0.535,
      0.09,
      0.6225,
      0.1775,
      0.7125,
      0.2675,
      0.8025,
      0.3575,
      0.89,
      0.445,
      0,
      0.535,
      0.09,
      0.6225,
      0.1775,
      0.7125,
      0.2675,
      0.8025,
      0.3575,
      0.89,
      0.445
    ],
    "SoftwareVersions": "syngo_MR_E11",
    "SpacingBetweenSlices": 2,
    "StationName": "AWP166018",
    "TaskName": "prf",
    "TotalReadoutTime": 0.0597409,
    "TxRefAmp": 236.478,
    "WipMemBlock": "6dc8b305-f712-4a6f-8dcd-7abb824dd64b||Sequence: R016 ve11c/master r/8780670; Nov 27 2017 15:05:12 by eja",
    "acq_id": "PA",
    "dataset": "unknown",
    "dcmmeta_affine": [
      [
        -1.9998055696487427,
        -0.013961469754576683,
        0.024136774241924286,
        108.89139556884766
      ],
      [
        -0.018547354266047478,
        1.9587438106536865,
        -0.4037059247493744,
        -71.5549087524414
      ],
      [
        0.02082071639597416,
        0.4038905203342438,
        1.958682894706726,
        -66.21240234375
      ],
      [
        0.0,
        0.0,
        0.0,
        1.0
      ]
    ],
    "dcmmeta_reorient_transform": [
      [
        0.0,
        -1.0,
        0.0,
        103.0
      ],
      [
        1.0,
        0.0,
        0.0,
        0.0
      ],
      [
        0.0,
        0.0,
        1.0,
        0.0
      ],
      [
        0.0,
        0.0,
        0.0,
        1.0
      ]
    ],
    "dcmmeta_shape": [
      104,
      104,
      66,
      192
    ],
    "dcmmeta_slice_dim": 2,
    "dcmmeta_version": 0.6,
    "global": {
      "const": {
        "AccessionNumber": "jk1gg4fq",
        "AcquisitionMatrix": [
          104,
          0,
          0,
          104
        ],
        "AngioFlag": "N",
        "BitsAllocated": 16,
        "BitsStored": 16,
        "BodyPartExamined": "BRAIN",
        "Columns": 936,
        "EchoNumbers": 1,
        "EchoTime": 37.0,
        "EchoTrainLength": 104,
        "FlipAngle": 68.0,
        "HighBit": 15,
        "ImageOrientationPatient": [
          0.99990280696005,
          0.00927367680193,
          0.01041035791864,
          -0.0069807347996,
          0.97937193190112,
          -0.2019452607662
        ],
        "ImagePositionPatient": [
          -933.56452649544,
          -952.74885567928,
          134.74536184488
        ],
        "ImageType": [
          "ORIGINAL",
          "PRIMARY",
          "M",
          "MB",
          "ND",
          "MOSAIC"
        ],
        "ImagedNucleus": "1H",
        "ImagingFrequency": 123.19106,
        "InPlanePhaseEncodingDirection": "COL",
        "MRAcquisitionType": "2D",
        "MagneticFieldStrength": 3.0,
        "Manufacturer": "SIEMENS",
        "ManufacturerModelName": "Prisma",
        "Modality": "MR",
        "NumberOfAverages": 1.0,
        "NumberOfPhaseEncodingSteps": 104,
        "PercentPhaseFieldOfView": 100.0,
        "PercentSampling": 100.0,
        "PerformedProcedureStepStartTime": "144213.335000",
        "PhotometricInterpretation": "MONOCHROME2",
        "PixelBandwidth": 2290.0,
        "PixelRepresentation": 0,
        "PixelSpacing": [
          2.0,
          2.0
        ],
        "ProtocolName": "cmrr_mbepi_task_prf",
        "RepetitionTime": 1000.0,
        "Rows": 936,
        "SAR": 0.06983771828348,
        "SamplesPerPixel": 1,
        "ScanOptions": "FS",
        "ScanningSequence": "EP",
        "SequenceName": "epfid2d1_104",
        "SequenceVariant": [
          "SK",
          "SS"
        ],
        "SeriesDescription": "cmrr_mbepi_task_prf",
        "SeriesNumber": 8,
        "SeriesTime": "145747.110000",
        "SliceLocation": -49.086837146501,
        "SliceThickness": 2.0,
        "SmallestImagePixelValue": 0,
        "SoftwareVersions": "syngo MR E11",
        "SpacingBetweenSlices": 1.9999999393285,
        "SpecificCharacterSet": "ISO_IR 100",
        "StudyID": "1",
        "StudyTime": "144213.272000",
        "TransmitCoilName": "Body",
        "VariableFlipAngleFlag": "N",
        "WindowCenterWidthExplanation": "Algo1",
        "dBdt": 0.0
      },
      "slices": {}
    },
    "modality": "bold",
    "run_id": 1,
    "session_id": "nyu3t01",
    "subject_id": "wlsubj056",
    "task_id": "prf",
    "time": {
      "samples": {
        "AcquisitionNumber": [
          1,
          2,
          3,
          4,
          5,
          6,
          7,
          8,
          9,
          10,
          11,
          12,
          13,
          14,
          15,
          16,
          17,
          18,
          19,
          20,
          21,
          22,
          23,
          24,
          25,
          26,
          27,
          28,
          29,
          30,
          31,
          32,
          33,
          34,
          35,
          36,
          37,
          38,
          39,
          40,
          41,
          42,
          43,
          44,
          45,
          46,
          47,
          48,
          49,
          50,
          51,
          52,
          53,
          54,
          55,
          56,
          57,
          58,
          59,
          60,
          61,
          62,
          63,
          64,
          65,
          66,
          67,
          68,
          69,
          70,
          71,
          72,
          73,
          74,
          75,
          76,
          77,
          78,
          79,
          80,
          81,
          82,
          83,
          84,
          85,
          86,
          87,
          88,
          89,
          90,
          91,
          92,
          93,
          94,
          95,
          96,
          97,
          98,
          99,
          100,
          101,
          102,
          103,
          104,
          105,
          106,
          107,
          108,
          109,
          110,
          111,
          112,
          113,
          114,
          115,
          116,
          117,
          118,
          119,
          120,
          121,
          122,
          123,
          124,
          125,
          126,
          127,
          128,
          129,
          130,
          131,
          132,
          133,
          134,
          135,
          136,
          137,
          138,
          139,
          140,
          141,
          142,
          143,
          144,
          145,
          146,
          147,
          148,
          149,
          150,
          151,
          152,
          153,
          154,
          155,
          156,
          157,
          158,
          159,
          160,
          161,
          162,
          163,
          164,
          165,
          166,
          167,
          168,
          169,
          170,
          171,
          172,
          173,
          174,
          175,
          176,
          177,
          178,
          179,
          180,
          181,
          182,
          183,
          184,
          185,
          186,
          187,
          188,
          189,
          190,
          191,
          192
        ],
        "AcquisitionTime": [
          "145654.835000",
          "145655.835000",
          "145656.835000",
          "145657.835000",
          "145658.835000",
          "145659.835000",
          "145700.835000",
          "145701.835000",
          "145702.835000",
          "145703.835000",
          "145704.835000",
          "145705.835000",
          "145706.835000",
          "145707.835000",
          "145708.835000",
          "145709.835000",
          "145710.835000",
          "145711.835000",
          "145712.835000",
          "145713.835000",
          "145714.835000",
          "145715.835000",
          "145716.835000",
          "145717.835000",
          "145718.835000",
          "145719.835000",
          "145720.835000",
          "145721.835000",
          "145722.835000",
          "145723.835000",
          "145724.835000",
          "145725.835000",
          "145726.835000",
          "145727.835000",
          "145728.835000",
          "145729.835000",
          "145730.835000",
          "145731.835000",
          "145732.835000",
          "145733.835000",
          "145734.835000",
          "145735.835000",
          "145736.835000",
          "145737.835000",
          "145738.835000",
          "145739.835000",
          "145740.835000",
          "145741.835000",
          "145742.835000",
          "145743.835000",
          "145744.835000",
          "145745.835000",
          "145746.835000",
          "145747.835000",
          "145748.835000",
          "145749.835000",
          "145750.835000",
          "145751.835000",
          "145752.835000",
          "145753.835000",
          "145754.835000",
          "145755.835000",
          "145756.835000",
          "145757.835000",
          "145758.835000",
          "145759.835000",
          "145800.835000",
          "145801.835000",
          "145802.835000",
          "145803.835000",
          "145804.835000",
          "145805.835000",
          "145806.835000",
          "145807.835000",
          "145808.835000",
          "145809.835000",
          "145810.835000",
          "145811.835000",
          "145812.835000",
          "145813.835000",
          "145814.835000",
          "145815.835000",
          "145816.835000",
          "145817.835000",
          "145818.835000",
          "145819.835000",
          "145820.835000",
          "145821.835000",
          "145822.835000",
          "145823.835000",
          "145824.835000",
          "145825.835000",
          "145826.835000",
          "145827.835000",
          "145828.835000",
          "145829.835000",
          "145830.835000",
          "145831.835000",
          "145832.835000",
          "145833.835000",
          "145834.835000",
          "145835.835000",
          "145836.835000",
          "145837.835000",
          "145838.835000",
          "145839.835000",
          "145840.835000",
          "145841.835000",
          "145842.835000",
          "145843.835000",
          "145844.835000",
          "145845.835000",
          "145846.835000",
          "145847.835000",
          "145848.835000",
          "145849.835000",
          "145850.835000",
          "145851.835000",
          "145852.835000",
          "145853.835000",
          "145854.835000",
          "145855.835000",
          "145856.835000",
          "145857.835000",
          "145858.835000",
          "145859.835000",
          "145900.835000",
          "145901.835000",
          "145902.835000",
          "145903.835000",
          "145904.835000",
          "145905.835000",
          "145906.835000",
          "145907.835000",
          "145908.835000",
          "145909.835000",
          "145910.835000",
          "145911.835000",
          "145912.835000",
          "145913.835000",
          "145914.835000",
          "145915.835000",
          "145916.835000",
          "145917.835000",
          "145918.835000",
          "145919.835000",
          "145920.835000",
          "145921.835000",
          "145922.835000",
          "145923.835000",
          "145924.835000",
          "145925.835000",
          "145926.835000",
          "145927.835000",
          "145928.835000",
          "145929.835000",
          "145930.835000",
          "145931.835000",
          "145932.835000",
          "145933.835000",
          "145934.835000",
          "145935.835000",
          "145936.835000",
          "145937.835000",
          "145938.835000",
          "145939.835000",
          "145940.835000",
          "145941.835000",
          "145942.835000",
          "145943.835000",
          "145944.835000",
          "145945.835000",
          "145946.835000",
          "145947.835000",
          "145948.835000",
          "145949.835000",
          "145950.835000",
          "145951.835000",
          "145952.835000",
          "145953.835000",
          "145954.835000",
          "145955.835000",
          "145956.835000",
          "145957.835000",
          "145958.835000",
          "145959.835000",
          "150000.835000",
          "150001.835000",
          "150002.835000",
          "150003.835000",
          "150004.835000",
          "150005.835000"
        ],
        "ContentTime": [
          "145747.113000",
          "145747.116000",
          "145747.119000",
          "145752.080000",
          "145752.083000",
          "145752.086000",
          "145752.089000",
          "145752.092000",
          "145752.095000",
          "145752.098000",
          "145757.080000",
          "145757.083000",
          "145757.086000",
          "145757.089000",
          "145757.092000",
          "145757.095000",
          "145757.098000",
          "145802.080000",
          "145802.083000",
          "145802.086000",
          "145802.089000",
          "145802.092000",
          "145802.095000",
          "145802.098000",
          "145802.101000",
          "145807.080000",
          "145807.083000",
          "145807.086000",
          "145807.089000",
          "145807.092000",
          "145807.095000",
          "145807.098000",
          "145812.080000",
          "145812.083000",
          "145812.086000",
          "145812.089000",
          "145812.092000",
          "145812.095000",
          "145812.098000",
          "145817.080000",
          "145817.083000",
          "145817.086000",
          "145817.089000",
          "145817.092000",
          "145817.095000",
          "145817.098000",
          "145822.080000",
          "145822.083000",
          "145822.093000",
          "145822.096000",
          "145822.099000",
          "145822.102000",
          "145822.105000",
          "145827.080000",
          "145827.083000",
          "145827.086000",
          "145827.089000",
          "145827.092000",
          "145827.096000",
          "145827.099000",
          "145832.080000",
          "145832.083000",
          "145832.086000",
          "145832.089000",
          "145832.092000",
          "145832.095000",
          "145832.098000",
          "145837.080000",
          "145837.083000",
          "145837.086000",
          "145837.089000",
          "145837.092000",
          "145837.095000",
          "145837.098000",
          "145842.080000",
          "145842.083000",
          "145842.086000",
          "145842.089000",
          "145842.092000",
          "145842.095000",
          "145842.098000",
          "145847.080000",
          "145847.083000",
          "145847.086000",
          "145847.089000",
          "145847.092000",
          "145847.095000",
          "145847.098000",
          "145852.080000",
          "145852.083000",
          "145852.086000",
          "145852.089000",
          "145852.092000",
          "145852.095000",
          "145852.098000",
          "145857.080000",
          "145857.084000",
          "145857.087000",
          "145857.090000",
          "145857.093000",
          "145857.096000",
          "145857.099000",
          "145902.080000",
          "145902.083000",
          "145902.086000",
          "145902.089000",
          "145902.092000",
          "145902.095000",
          "145902.098000",
          "145902.101000",
          "145907.080000",
          "145907.083000",
          "145907.086000",
          "145907.089000",
          "145907.092000",
          "145907.095000",
          "145907.098000",
          "145912.080000",
          "145912.083000",
          "145912.086000",
          "145912.089000",
          "145912.092000",
          "145912.095000",
          "145912.098000",
          "145917.080000",
          "145917.089000",
          "145917.091000",
          "145917.104000",
          "145917.107000",
          "145917.110000",
          "145917.113000",
          "145922.080000",
          "145922.083000",
          "145922.086000",
          "145922.089000",
          "145922.092000",
          "145922.095000",
          "145922.098000",
          "145927.080000",
          "145927.083000",
          "145927.086000",
          "145927.089000",
          "145927.092000",
          "145927.095000",
          "145927.098000",
          "145932.080000",
          "145932.083000",
          "145932.086000",
          "145932.089000",
          "145932.092000",
          "145932.095000",
          "145932.098000",
          "145937.080000",
          "145937.083000",
          "145937.086000",
          "145937.089000",
          "145937.104000",
          "145937.107000",
          "145937.110000",
          "145942.080000",
          "145942.083000",
          "145942.086000",
          "145942.089000",
          "145942.092000",
          "145942.095000",
          "145942.098000",
          "145947.080000",
          "145947.083000",
          "145947.086000",
          "145947.089000",
          "145947.092000",
          "145952.080000",
          "145952.083000",
          "145952.086000",
          "145952.089000",
          "145952.092000",
          "150002.080000",
          "150002.083000",
          "150002.086000",
          "150002.089000",
          "150002.092000",
          "150002.095000",
          "150002.098000",
          "150002.101000",
          "150002.104000",
          "150002.107000",
          "150007.080000",
          "150007.083000",
          "150007.086000",
          "150007.089000",
          "150007.092000",
          "150007.726000"
        ],
        "InstanceCreationTime": [
          "145747.113000",
          "145747.116000",
          "145747.119000",
          "145752.080000",
          "145752.083000",
          "145752.086000",
          "145752.089000",
          "145752.092000",
          "145752.095000",
          "145752.098000",
          "145757.080000",
          "145757.083000",
          "145757.086000",
          "145757.089000",
          "145757.092000",
          "145757.095000",
          "145757.098000",
          "145802.080000",
          "145802.083000",
          "145802.086000",
          "145802.089000",
          "145802.092000",
          "145802.095000",
          "145802.098000",
          "145802.101000",
          "145807.080000",
          "145807.083000",
          "145807.086000",
          "145807.089000",
          "145807.092000",
          "145807.095000",
          "145807.098000",
          "145812.080000",
          "145812.083000",
          "145812.086000",
          "145812.089000",
          "145812.092000",
          "145812.095000",
          "145812.098000",
          "145817.080000",
          "145817.083000",
          "145817.086000",
          "145817.089000",
          "145817.092000",
          "145817.095000",
          "145817.098000",
          "145822.080000",
          "145822.083000",
          "145822.093000",
          "145822.096000",
          "145822.099000",
          "145822.102000",
          "145822.105000",
          "145827.080000",
          "145827.083000",
          "145827.086000",
          "145827.089000",
          "145827.092000",
          "145827.096000",
          "145827.099000",
          "145832.080000",
          "145832.083000",
          "145832.086000",
          "145832.089000",
          "145832.092000",
          "145832.095000",
          "145832.098000",
          "145837.080000",
          "145837.083000",
          "145837.086000",
          "145837.089000",
          "145837.092000",
          "145837.095000",
          "145837.098000",
          "145842.080000",
          "145842.083000",
          "145842.086000",
          "145842.089000",
          "145842.092000",
          "145842.095000",
          "145842.098000",
          "145847.080000",
          "145847.083000",
          "145847.086000",
          "145847.089000",
          "145847.092000",
          "145847.095000",
          "145847.098000",
          "145852.080000",
          "145852.083000",
          "145852.086000",
          "145852.089000",
          "145852.092000",
          "145852.095000",
          "145852.098000",
          "145857.080000",
          "145857.084000",
          "145857.087000",
          "145857.090000",
          "145857.093000",
          "145857.096000",
          "145857.099000",
          "145902.080000",
          "145902.083000",
          "145902.086000",
          "145902.089000",
          "145902.092000",
          "145902.095000",
          "145902.098000",
          "145902.101000",
          "145907.080000",
          "145907.083000",
          "145907.086000",
          "145907.089000",
          "145907.092000",
          "145907.095000",
          "145907.098000",
          "145912.080000",
          "145912.083000",
          "145912.086000",
          "145912.089000",
          "145912.092000",
          "145912.095000",
          "145912.098000",
          "145917.080000",
          "145917.089000",
          "145917.091000",
          "145917.104000",
          "145917.107000",
          "145917.110000",
          "145917.113000",
          "145922.080000",
          "145922.083000",
          "145922.086000",
          "145922.089000",
          "145922.092000",
          "145922.095000",
          "145922.098000",
          "145927.080000",
          "145927.083000",
          "145927.086000",
          "145927.089000",
          "145927.092000",
          "145927.095000",
          "145927.098000",
          "145932.080000",
          "145932.083000",
          "145932.086000",
          "145932.089000",
          "145932.092000",
          "145932.095000",
          "145932.098000",
          "145937.080000",
          "145937.083000",
          "145937.086000",
          "145937.089000",
          "145937.104000",
          "145937.107000",
          "145937.110000",
          "145942.080000",
          "145942.083000",
          "145942.086000",
          "145942.089000",
          "145942.092000",
          "145942.095000",
          "145942.098000",
          "145947.080000",
          "145947.083000",
          "145947.086000",
          "145947.089000",
          "145947.092000",
          "145952.080000",
          "145952.083000",
          "145952.086000",
          "145952.089000",
          "145952.092000",
          "150002.080000",
          "150002.083000",
          "150002.086000",
          "150002.089000",
          "150002.092000",
          "150002.095000",
          "150002.098000",
          "150002.101000",
          "150002.104000",
          "150002.107000",
          "150007.080000",
          "150007.083000",
          "150007.086000",
          "150007.089000",
          "150007.092000",
          "150007.726000"
        ],
        "InstanceNumber": [
          1,
          2,
          3,
          4,
          5,
          6,
          7,
          8,
          9,
          10,
          11,
          12,
          13,
          14,
          15,
          16,
          17,
          18,
          19,
          20,
          21,
          22,
          23,
          24,
          25,
          26,
          27,
          28,
          29,
          30,
          31,
          32,
          33,
          34,
          35,
          36,
          37,
          38,
          39,
          40,
          41,
          42,
          43,
          44,
          45,
          46,
          47,
          48,
          49,
          50,
          51,
          52,
          53,
          54,
          55,
          56,
          57,
          58,
          59,
          60,
          61,
          62,
          63,
          64,
          65,
          66,
          67,
          68,
          69,
          70,
          71,
          72,
          73,
          74,
          75,
          76,
          77,
          78,
          79,
          80,
          81,
          82,
          83,
          84,
          85,
          86,
          87,
          88,
          89,
          90,
          91,
          92,
          93,
          94,
          95,
          96,
          97,
          98,
          99,
          100,
          101,
          102,
          103,
          104,
          105,
          106,
          107,
          108,
          109,
          110,
          111,
          112,
          113,
          114,
          115,
          116,
          117,
          118,
          119,
          120,
          121,
          122,
          123,
          124,
          125,
          126,
          127,
          128,
          129,
          130,
          131,
          132,
          133,
          134,
          135,
          136,
          137,
          138,
          139,
          140,
          141,
          142,
          143,
          144,
          145,
          146,
          147,
          148,
          149,
          150,
          151,
          152,
          153,
          154,
          155,
          156,
          157,
          158,
          159,
          160,
          161,
          162,
          163,
          164,
          165,
          166,
          167,
          168,
          169,
          170,
          171,
          172,
          173,
          174,
          175,
          176,
          177,
          178,
          179,
          180,
          181,
          182,
          183,
          184,
          185,
          186,
          187,
          188,
          189,
          190,
          191,
          192
        ],
        "LargestImagePixelValue": [
          41111,
          39718,
          39626,
          39543,
          42998,
          38815,
          38661,
          39501,
          38658,
          38597,
          38244,
          38355,
          39159,
          39025,
          38574,
          38389,
          38719,
          38464,
          39051,
          39068,
          38814,
          38431,
          39228,
          39213,
          38508,
          38980,
          37865,
          38549,
          38128,
          40403,
          38938,
          39526,
          37531,
          37797,
          38365,
          37965,
          40273,
          38561,
          38039,
          38236,
          39153,
          38091,
          38890,
          38114,
          38763,
          38418,
          38453,
          38608,
          38283,
          38107,
          39280,
          40646,
          39132,
          38882,
          38710,
          39177,
          38884,
          39388,
          38740,
          40737,
          39023,
          40400,
          39118,
          41900,
          39914,
          38710,
          39399,
          38872,
          39138,
          38992,
          39367,
          39271,
          38875,
          38639,
          38585,
          39684,
          38672,
          39751,
          39252,
          39707,
          38938,
          39420,
          39279,
          42289,
          41347,
          38889,
