{
  "aor": 0.0009204166666666667,
  "aqi": 0.007156765520833334,
  "bids_meta": {
    "AcquisitionMatrixPE": 104,
    "AcquisitionNumber": 1,
    "AcquisitionTime": "15:09:44.472500",
    "BandwidthPerPixelPhaseEncode": 16.578,
    "BaseResolution": 104,
    "BodyPartExamined": "BRAIN",
    "CogAtlasID": "TODO",
    "ConsistencyInfo": "N4_VE11C_LATEST_20160120",
    "ConversionSoftware": "dcm2niix",
    "ConversionSoftwareVersion": "v1.0.20190902",
    "DerivedVendorReportedEchoSpacing": 0.000580009,
    "DeviceSerialNumber": "166018",
    "DwellTime": 2.1e-06,
    "EchoTime": 0.037,
    "EchoTrainLength": 104,
    "EffectiveEchoSpacing": 0.000580009,
    "FlipAngle": 68,
    "ImageComments": "Unaliased_MB6_PE3_LB",
    "ImageOrientationPatientDICOM": [
      0.999903,
      0.00927368,
      0.0104104,
      -0.00698073,
      0.979372,
      -0.201945
    ],
    "ImageType": [
      "ORIGINAL",
      "PRIMARY",
      "M",
      "MB",
      "ND",
      "MOSAIC"
    ],
    "ImagingFrequency": 123.191,
    "InPlanePhaseEncodingDirectionDICOM": "COL",
    "InstitutionAddress": "Washington_Place_6_NYC_NYC_US_10003",
    "InstitutionName": "NYU_-_CBI",
    "InstitutionalDepartmentName": "Department",
    "MRAcquisitionType": "2D",
    "MagneticFieldStrength": 3,
    "Manufacturer": "Siemens",
    "ManufacturersModelName": "Prisma",
    "Modality": "MR",
    "MultibandAccelerationFactor": 6,
    "NumberOfVolumes": 192,
    "PartialFourier": 1,
    "PatientPosition": "HFS",
    "PercentPhaseFOV": 100,
    "PhaseEncodingDirection": "j",
    "PhaseEncodingSteps": 104,
    "PhaseResolution": 1,
    "PixelBandwidth": 2290,
    "ProcedureStepDescription": "Investigators_Winawer",
    "ProtocolName": "cmrr_mbepi_task_prf",
    "PulseSequenceDetails": "%CustomerSeq%_cmrr_mbep2d_bold",
    "ReceiveCoilActiveElements": "HC1-7",
    "ReceiveCoilName": "HeadNeck_64",
    "ReconMatrixPE": 104,
    "RepetitionTime": 1,
    "SAR": 0.0698377,
    "ScanOptions": "FS",
    "ScanningSequence": "EP",
    "SequenceName": "epfid2d1_104",
    "SequenceVariant": "SK_SS",
    "SeriesDescription": "cmrr_mbepi_task_prf",
    "SeriesNumber": 14,
    "ShimSetting": [
      251,
      -12561,
      -8501,
      312,
      -65,
      -71,
      -3,
      16
    ],
    "SliceThickness": 2,
    "SliceTiming": [
      0,
      0.535,
      0.0875,
      0.6225,
      0.1775,
      0.7125,
      0.2675,
      0.8,
      0.355,
      0.89,
      0.445,
      0,
      0.535,
      0.0875,
      0.6225,
      0.1775,
      0.7125,
      0.2675,
      0.8,
      0.355,
      0.89,
      0.445,
      0,
      0.535,
      0.0875,
      0.6225,
      0.1775,
      0.7125,
      0.2675,
      0.8,
      0.355,
      0.89,
      0.445,
      0,
      0.535,
      0.0875,
      0.6225,
      0.1775,
      0.7125,
      0.2675,
      0.8,
      0.355,
      0.89,
      0.445,
      0,
      0.535,
      0.0875,
      0.6225,
      0.1775,
      0.7125,
      0.2675,
      0.8,
      0.355,
      0.89,
      0.445,
      0,
      0.535,
      0.0875,
      0.6225,
      0.1775,
      0.7125,
      0.2675,
      0.8,
      0.355,
      0.89,
      0.445
    ],
    "SoftwareVersions": "syngo_MR_E11",
    "SpacingBetweenSlices": 2,
    "StationName": "AWP166018",
    "TaskName": "prf",
    "TotalReadoutTime": 0.0597409,
    "TxRefAmp": 236.478,
    "WipMemBlock": "6dc8b305-f712-4a6f-8dcd-7abb824dd64b||Sequence: R016 ve11c/master r/8780670; Nov 27 2017 15:05:12 by eja",
    "acq_id": "PA",
    "dataset": "unknown",
    "dcmmeta_affine": [
      [
        -1.9998055696487427,
        -0.013961469754576683,
        0.024136774241924286,
        108.89139556884766
      ],
      [
        -0.018547354266047478,
        1.9587438106536865,
        -0.4037059247493744,
        -71.5549087524414
      ],
      [
        0.02082071639597416,
        0.4038905203342438,
        1.958682894706726,
        -66.21240234375
      ],
      [
        0.0,
        0.0,
        0.0,
        1.0
      ]
    ],
    "dcmmeta_reorient_transform": [
      [
        0.0,
        -1.0,
        0.0,
        103.0
      ],
      [
        1.0,
        0.0,
        0.0,
        0.0
      ],
      [
        0.0,
        0.0,
        1.0,
        0.0
      ],
      [
        0.0,
        0.0,
        0.0,
        1.0
      ]
    ],
    "dcmmeta_shape": [
      104,
      104,
      66,
      192
    ],
    "dcmmeta_slice_dim": 2,
    "dcmmeta_version": 0.6,
    "global": {
      "const": {
        "AccessionNumber": "jk1gg4fq",
        "AcquisitionMatrix": [
          104,
          0,
          0,
          104
        ],
        "AngioFlag": "N",
        "BitsAllocated": 16,
        "BitsStored": 16,
        "BodyPartExamined": "BRAIN",
        "Columns": 936,
        "EchoNumbers": 1,
        "EchoTime": 37.0,
        "EchoTrainLength": 104,
        "FlipAngle": 68.0,
        "HighBit": 15,
        "ImageOrientationPatient": [
          0.99990280696005,
          0.00927367680193,
          0.01041035791864,
          -0.0069807347996,
          0.97937193190112,
          -0.2019452607662
        ],
        "ImagePositionPatient": [
          -933.56452649544,
          -952.74885567928,
          134.74536184488
        ],
        "ImageType": [
          "ORIGINAL",
          "PRIMARY",
          "M",
          "MB",
          "ND",
          "MOSAIC"
        ],
        "ImagedNucleus": "1H",
        "ImagingFrequency": 123.19106,
        "InPlanePhaseEncodingDirection": "COL",
        "MRAcquisitionType": "2D",
        "MagneticFieldStrength": 3.0,
        "Manufacturer": "SIEMENS",
        "ManufacturerModelName": "Prisma",
        "Modality": "MR",
        "NumberOfAverages": 1.0,
        "NumberOfPhaseEncodingSteps": 104,
        "PercentPhaseFieldOfView": 100.0,
        "PercentSampling": 100.0,
        "PerformedProcedureStepStartTime": "144213.335000",
        "PhotometricInterpretation": "MONOCHROME2",
        "PixelBandwidth": 2290.0,
        "PixelRepresentation": 0,
        "PixelSpacing": [
          2.0,
          2.0
        ],
        "ProtocolName": "cmrr_mbepi_task_prf",
        "RepetitionTime": 1000.0,
        "Rows": 936,
        "SAR": 0.06983771828348,
        "SamplesPerPixel": 1,
        "ScanOptions": "FS",
        "ScanningSequence": "EP",
        "SequenceName": "epfid2d1_104",
        "SequenceVariant": [
          "SK",
          "SS"
        ],
        "SeriesDescription": "cmrr_mbepi_task_prf",
        "SeriesNumber": 14,
        "SeriesTime": "151044.303000",
        "SliceLocation": -49.086837146501,
        "SliceThickness": 2.0,
        "SmallestImagePixelValue": 0,
        "SoftwareVersions": "syngo MR E11",
        "SpacingBetweenSlices": 1.9999999393285,
        "SpecificCharacterSet": "ISO_IR 100",
        "StudyID": "1",
        "StudyTime": "144213.272000",
        "TransmitCoilName": "Body",
        "VariableFlipAngleFlag": "N",
        "WindowCenterWidthExplanation": "Algo1",
        "dBdt": 0.0
      },
      "slices": {}
    },
    "modality": "bold",
    "run_id": 4,
    "session_id": "nyu3t01",
    "subject_id": "wlsubj056",
    "task_id": "prf",
    "time": {
      "samples": {
        "AcquisitionNumber": [
          1,
          2,
          3,
          4,
          5,
          6,
          7,
          8,
          9,
          10,
          11,
          12,
          13,
          14,
          15,
          16,
          17,
          18,
          19,
          20,
          21,
          22,
          23,
          24,
          25,
          26,
          27,
          28,
          29,
          30,
          31,
          32,
          33,
          34,
          35,
          36,
          37,
          38,
          39,
          40,
          41,
          42,
          43,
          44,
          45,
          46,
          47,
          48,
          49,
          50,
          51,
          52,
          53,
          54,
          55,
          56,
          57,
          58,
          59,
          60,
          61,
          62,
          63,
          64,
          65,
          66,
          67,
          68,
          69,
          70,
          71,
          72,
          73,
          74,
          75,
          76,
          77,
          78,
          79,
          80,
          81,
          82,
          83,
          84,
          85,
          86,
          87,
          88,
          89,
          90,
          91,
          92,
          93,
          94,
          95,
          96,
          97,
          98,
          99,
          100,
          101,
          102,
          103,
          104,
          105,
          106,
          107,
          108,
          109,
          110,
          111,
          112,
          113,
          114,
          115,
          116,
          117,
          118,
          119,
          120,
          121,
          122,
          123,
          124,
          125,
          126,
          127,
          128,
          129,
          130,
          131,
          132,
          133,
          134,
          135,
          136,
          137,
          138,
          139,
          140,
          141,
          142,
          143,
          144,
          145,
          146,
          147,
          148,
          149,
          150,
          151,
          152,
          153,
          154,
          155,
          156,
          157,
          158,
          159,
          160,
          161,
          162,
          163,
          164,
          165,
          166,
          167,
          168,
          169,
          170,
          171,
          172,
          173,
          174,
          175,
          176,
          177,
          178,
          179,
          180,
          181,
          182,
          183,
          184,
          185,
          186,
          187,
          188,
          189,
          190,
          191,
          192
        ],
        "AcquisitionTime": [
          "150944.472500",
          "150945.472500",
          "150946.472500",
          "150947.472500",
          "150948.472500",
          "150949.472500",
          "150950.472500",
          "150951.472500",
          "150952.472500",
          "150953.472500",
          "150954.472500",
          "150955.472500",
          "150956.472500",
          "150957.472500",
          "150958.472500",
          "150959.472500",
          "151000.472500",
          "151001.472500",
          "151002.472500",
          "151003.472500",
          "151004.472500",
          "151005.472500",
          "151006.472500",
          "151007.472500",
          "151008.472500",
          "151009.472500",
          "151010.472500",
          "151011.472500",
          "151012.472500",
          "151013.472500",
          "151014.472500",
          "151015.472500",
          "151016.472500",
          "151017.472500",
          "151018.472500",
          "151019.472500",
          "151020.472500",
          "151021.472500",
          "151022.472500",
          "151023.472500",
          "151024.472500",
          "151025.472500",
          "151026.472500",
          "151027.472500",
          "151028.472500",
          "151029.472500",
          "151030.472500",
          "151031.472500",
          "151032.472500",
          "151033.472500",
          "151034.472500",
          "151035.472500",
          "151036.472500",
          "151037.472500",
          "151038.472500",
          "151039.472500",
          "151040.472500",
          "151041.472500",
          "151042.472500",
          "151043.472500",
          "151044.472500",
          "151045.472500",
          "151046.472500",
          "151047.472500",
          "151048.472500",
          "151049.472500",
          "151050.472500",
          "151051.472500",
          "151052.472500",
          "151053.472500",
          "151054.472500",
          "151055.472500",
          "151056.472500",
          "151057.472500",
          "151058.472500",
          "151059.472500",
          "151100.472500",
          "151101.472500",
          "151102.472500",
          "151103.472500",
          "151104.472500",
          "151105.472500",
          "151106.472500",
          "151107.472500",
          "151108.472500",
          "151109.472500",
          "151110.472500",
          "151111.472500",
          "151112.472500",
          "151113.472500",
          "151114.472500",
          "151115.472500",
          "151116.472500",
          "151117.472500",
          "151118.472500",
          "151119.472500",
          "151120.472500",
          "151121.472500",
          "151122.472500",
          "151123.472500",
          "151124.472500",
          "151125.472500",
          "151126.472500",
          "151127.472500",
          "151128.472500",
          "151129.472500",
          "151130.472500",
          "151131.472500",
          "151132.472500",
          "151133.472500",
          "151134.472500",
          "151135.472500",
          "151136.472500",
          "151137.472500",
          "151138.472500",
          "151139.472500",
          "151140.472500",
          "151141.472500",
          "151142.472500",
          "151143.472500",
          "151144.472500",
          "151145.472500",
          "151146.472500",
          "151147.472500",
          "151148.472500",
          "151149.472500",
          "151150.472500",
          "151151.472500",
          "151152.472500",
          "151153.472500",
          "151154.472500",
          "151155.472500",
          "151156.472500",
          "151157.472500",
          "151158.472500",
          "151159.472500",
          "151200.472500",
          "151201.472500",
          "151202.472500",
          "151203.472500",
          "151204.472500",
          "151205.472500",
          "151206.472500",
          "151207.472500",
          "151208.472500",
          "151209.472500",
          "151210.472500",
          "151211.472500",
          "151212.472500",
          "151213.472500",
          "151214.472500",
          "151215.472500",
          "151216.472500",
          "151217.472500",
          "151218.472500",
          "151219.472500",
          "151220.472500",
          "151221.472500",
          "151222.472500",
          "151223.472500",
          "151224.472500",
          "151225.472500",
          "151226.472500",
          "151227.472500",
          "151228.472500",
          "151229.472500",
          "151230.472500",
          "151231.472500",
          "151232.472500",
          "151233.472500",
          "151234.472500",
          "151235.472500",
          "151236.472500",
          "151237.472500",
          "151238.472500",
          "151239.472500",
          "151240.472500",
          "151241.472500",
          "151242.472500",
          "151243.472500",
          "151244.472500",
          "151245.472500",
          "151246.472500",
          "151247.472500",
          "151248.472500",
          "151249.472500",
          "151250.472500",
          "151251.472500",
          "151252.472500",
          "151253.472500",
          "151254.472500",
          "151255.472500"
        ],
        "ContentTime": [
          "151044.306000",
          "151044.309000",
          "151044.312000",
          "151044.315000",
          "151044.318000",
          "151044.321000",
          "151044.334000",
          "151049.304000",
          "151049.307000",
          "151049.317000",
          "151049.320000",
          "151049.323000",
          "151049.326000",
          "151049.329000",
          "151054.304000",
          "151054.307000",
          "151054.310000",
          "151054.313000",
          "151054.316000",
          "151054.319000",
          "151054.322000",
          "151059.305000",
          "151059.308000",
          "151059.311000",
          "151059.314000",
          "151059.317000",
          "151059.320000",
          "151059.323000",
          "151104.304000",
          "151104.307000",
          "151104.310000",
          "151104.313000",
          "151104.316000",
          "151104.319000",
          "151104.322000",
          "151109.304000",
          "151109.307000",
          "151109.310000",
          "151109.313000",
          "151109.316000",
          "151109.319000",
          "151109.322000",
          "151114.304000",
          "151114.307000",
          "151114.310000",
          "151114.313000",
          "151114.316000",
          "151114.319000",
          "151114.322000",
          "151114.325000",
          "151119.304000",
          "151119.307000",
          "151119.312000",
          "151119.315000",
          "151119.318000",
          "151119.322000",
          "151119.324000",
          "151124.304000",
          "151124.307000",
          "151124.310000",
          "151124.313000",
          "151124.316000",
          "151124.319000",
          "151124.322000",
          "151129.304000",
          "151129.307000",
          "151129.310000",
          "151129.313000",
          "151129.316000",
          "151129.319000",
          "151129.322000",
          "151134.305000",
          "151134.308000",
          "151134.311000",
          "151134.314000",
          "151134.317000",
          "151134.320000",
          "151134.323000",
          "151139.304000",
          "151139.307000",
          "151139.310000",
          "151139.318000",
          "151139.321000",
          "151139.324000",
          "151139.327000",
          "151144.304000",
          "151144.307000",
          "151144.310000",
          "151144.313000",
          "151144.316000",
          "151144.319000",
          "151144.322000",
          "151149.304000",
          "151149.307000",
          "151149.310000",
          "151149.313000",
          "151149.316000",
          "151149.319000",
          "151149.322000",
          "151154.304000",
          "151154.307000",
          "151154.310000",
          "151154.313000",
          "151154.316000",
          "151154.319000",
          "151154.322000",
          "151159.304000",
          "151159.307000",
          "151159.310000",
          "151159.313000",
          "151159.316000",
          "151159.319000",
          "151159.322000",
          "151204.304000",
          "151204.307000",
          "151204.310000",
          "151204.313000",
          "151204.316000",
          "151204.319000",
          "151204.322000",
          "151209.305000",
          "151209.308000",
          "151209.316000",
          "151209.318000",
          "151209.321000",
          "151209.325000",
          "151209.328000",
          "151214.304000",
          "151214.307000",
          "151214.310000",
          "151214.313000",
          "151214.316000",
          "151214.319000",
          "151214.322000",
          "151219.304000",
          "151219.307000",
          "151219.310000",
          "151219.313000",
          "151219.316000",
          "151219.319000",
          "151219.322000",
          "151224.304000",
          "151224.307000",
          "151224.310000",
          "151224.329000",
          "151224.332000",
          "151224.335000",
          "151224.339000",
          "151229.304000",
          "151229.307000",
          "151229.310000",
          "151229.313000",
          "151229.316000",
          "151229.319000",
          "151229.322000",
          "151234.304000",
          "151234.307000",
          "151234.310000",
          "151234.313000",
          "151234.316000",
          "151234.319000",
          "151234.322000",
          "151239.304000",
          "151239.307000",
          "151239.310000",
          "151239.313000",
          "151239.316000",
          "151239.319000",
          "151239.322000",
          "151244.305000",
          "151244.308000",
          "151244.311000",
          "151244.314000",
          "151244.317000",
          "151244.320000",
          "151244.323000",
          "151249.304000",
          "151249.307000",
          "151249.310000",
          "151249.313000",
          "151249.316000",
          "151249.319000",
          "151249.322000",
          "151254.304000",
          "151254.307000",
          "151254.310000",
          "151254.313000",
          "151254.316000",
          "151254.319000",
          "151256.686000",
          "151256.690000",
          "151256.693000"
        ],
        "InstanceCreationTime": [
          "151044.306000",
          "151044.309000",
          "151044.312000",
          "151044.315000",
          "151044.318000",
          "151044.321000",
          "151044.334000",
          "151049.304000",
          "151049.307000",
          "151049.317000",
          "151049.320000",
          "151049.323000",
          "151049.326000",
          "151049.329000",
          "151054.304000",
          "151054.307000",
          "151054.310000",
          "151054.313000",
          "151054.316000",
          "151054.319000",
          "151054.322000",
          "151059.305000",
          "151059.308000",
          "151059.311000",
          "151059.314000",
          "151059.317000",
          "151059.320000",
          "151059.323000",
          "151104.304000",
          "151104.307000",
          "151104.310000",
          "151104.313000",
          "151104.316000",
          "151104.319000",
          "151104.322000",
          "151109.304000",
          "151109.307000",
          "151109.310000",
          "151109.313000",
          "151109.316000",
          "151109.319000",
          "151109.322000",
          "151114.304000",
          "151114.307000",
          "151114.310000",
          "151114.313000",
          "151114.316000",
          "151114.319000",
          "151114.322000",
          "151114.325000",
          "151119.304000",
          "151119.307000",
          "151119.312000",
          "151119.315000",
          "151119.318000",
          "151119.322000",
          "151119.324000",
          "151124.304000",
          "151124.307000",
          "151124.310000",
          "151124.313000",
          "151124.316000",
          "151124.319000",
          "151124.322000",
          "151129.304000",
          "151129.307000",
          "151129.310000",
          "151129.313000",
          "151129.316000",
          "151129.319000",
          "151129.322000",
          "151134.305000",
          "151134.308000",
          "151134.311000",
          "151134.314000",
          "151134.317000",
          "151134.320000",
          "151134.323000",
          "151139.304000",
          "151139.307000",
          "151139.310000",
          "151139.318000",
          "151139.321000",
          "151139.324000",
          "151139.327000",
          "151144.304000",
          "151144.307000",
          "151144.310000",
          "151144.313000",
          "151144.316000",
          "151144.319000",
          "151144.322000",
          "151149.304000",
          "151149.307000",
          "151149.310000",
          "151149.313000",
          "151149.316000",
          "151149.319000",
          "151149.322000",
          "151154.304000",
          "151154.307000",
          "151154.310000",
          "151154.313000",
          "151154.316000",
          "151154.319000",
          "151154.322000",
          "151159.304000",
          "151159.307000",
          "151159.310000",
          "151159.313000",
          "151159.316000",
          "151159.319000",
          "151159.322000",
          "151204.304000",
          "151204.307000",
          "151204.310000",
          "151204.313000",
          "151204.316000",
          "151204.319000",
          "151204.322000",
          "151209.305000",
          "151209.308000",
          "151209.316000",
          "151209.318000",
          "151209.321000",
          "151209.325000",
          "151209.328000",
          "151214.304000",
          "151214.307000",
          "151214.310000",
          "151214.313000",
          "151214.316000",
          "151214.319000",
          "151214.322000",
          "151219.304000",
          "151219.307000",
          "151219.310000",
          "151219.313000",
          "151219.316000",
          "151219.319000",
          "151219.322000",
          "151224.304000",
          "151224.307000",
          "151224.310000",
          "151224.329000",
          "151224.332000",
          "151224.335000",
          "151224.339000",
          "151229.304000",
          "151229.307000",
          "151229.310000",
          "151229.313000",
          "151229.316000",
          "151229.319000",
          "151229.322000",
          "151234.304000",
          "151234.307000",
          "151234.310000",
          "151234.313000",
          "151234.316000",
          "151234.319000",
          "151234.322000",
          "151239.304000",
          "151239.307000",
          "151239.310000",
          "151239.313000",
          "151239.316000",
          "151239.319000",
          "151239.322000",
          "151244.305000",
          "151244.308000",
          "151244.311000",
          "151244.314000",
          "151244.317000",
          "151244.320000",
          "151244.323000",
          "151249.304000",
          "151249.307000",
          "151249.310000",
          "151249.313000",
          "151249.316000",
          "151249.319000",
          "151249.322000",
          "151254.304000",
          "151254.307000",
          "151254.310000",
          "151254.313000",
          "151254.316000",
          "151254.319000",
          "151256.686000",
          "151256.690000",
          "151256.693000"
        ],
        "InstanceNumber": [
          1,
          2,
          3,
          4,
          5,
          6,
          7,
          8,
          9,
          10,
          11,
          12,
          13,
          14,
          15,
          16,
          17,
          18,
          19,
          20,
          21,
          22,
          23,
          24,
          25,
          26,
          27,
          28,
          29,
          30,
          31,
          32,
          33,
          34,
          35,
          36,
          37,
          38,
          39,
          40,
          41,
          42,
          43,
          44,
          45,
          46,
          47,
          48,
          49,
          50,
          51,
          52,
          53,
          54,
          55,
          56,
          57,
          58,
          59,
          60,
          61,
          62,
          63,
          64,
          65,
          66,
          67,
          68,
          69,
          70,
          71,
          72,
          73,
          74,
          75,
          76,
          77,
          78,
          79,
          80,
          81,
          82,
          83,
          84,
          85,
          86,
          87,
          88,
          89,
          90,
          91,
          92,
          93,
          94,
          95,
          96,
          97,
          98,
          99,
          100,
          101,
          102,
          103,
          104,
          105,
          106,
          107,
          108,
          109,
          110,
          111,
          112,
          113,
          114,
          115,
          116,
          117,
          118,
          119,
          120,
          121,
          122,
          123,
          124,
          125,
          126,
          127,
          128,
          129,
          130,
          131,
          132,
          133,
          134,
          135,
          136,
          137,
          138,
          139,
          140,
          141,
          142,
          143,
          144,
          145,
          146,
          147,
          148,
          149,
          150,
          151,
          152,
          153,
          154,
          155,
          156,
          157,
          158,
          159,
          160,
          161,
          162,
          163,
          164,
          165,
          166,
          167,
          168,
          169,
          170,
          171,
          172,
          173,
          174,
          175,
          176,
          177,
          178,
          179,
          180,
          181,
          182,
          183,
          184,
          185,
          186,
          187,
          188,
          189,
          190,
          191,
          192
        ],
        "LargestImagePixelValue": [
          39835,
          38737,
          38997,
          38880,
          39387,
          38843,
          39002,
          38208,
          38090,
          39355,
          38475,
          39524,
          39053,
          38487,
          38416,
          38528,
          38156,
          39914,
          39063,
          40107,
          39564,
          39067,
          39245,
          39574,
          39172,
          38682,
          39747,
          39407,
          39255,
          38882,
          39149,
          39124,
          38782,
          39272,
          38441,
          38790,
          37864,
          38283,
          38406,
          38898,
          39119,
          38673,
          39515,
          38796,
          39461,
          38715,
          39116,
          40720,
          38331,
          40223,
          38558,
          38466,
          39092,
          39139,
          39252,
          39261,
          39421,
          39899,
          39118,
          39443,
          39092,
          41015,
          39903,
          39429,
          38877,
          38818,
          38765,
          38295,
          37940,
          37587,
          39265,
          38146,
          38171,
          37988,
          37991,
          39840,
          38448,
          38514,
          37924,
          37437,
          37073,
          37365,
          37297,
          38222,
          40106,
          37994,
          38079,
