{
  "aor": 0.0005606806282722513,
  "aqi": 0.004330442931937173,
  "bids_meta": {
    "AcquisitionMatrixPE": 104,
    "AcquisitionNumber": 1,
    "AcquisitionTime": "13:26:34.490000",
    "BandwidthPerPixelPhaseEncode": 16.578,
    "BaseResolution": 104,
    "BodyPartExamined": "BRAIN",
    "CogAtlasID": "TODO",
    "ConsistencyInfo": "N4_VE11C_LATEST_20160120",
    "ConversionSoftware": "dcm2niix",
    "ConversionSoftwareVersion": "v1.0.20190902",
    "DerivedVendorReportedEchoSpacing": 0.000580009,
    "DeviceSerialNumber": "166018",
    "DwellTime": 2.1e-06,
    "EchoTime": 0.037,
    "EchoTrainLength": 104,
    "EffectiveEchoSpacing": 0.000580009,
    "FlipAngle": 68,
    "ImageComments": "Unaliased_MB6_PE3_LB",
    "ImageOrientationPatientDICOM": [
      0.998567,
      0.0308373,
      0.0437352,
      -0.0280669,
      0.997644,
      -0.062602
    ],
    "ImageType": [
      "ORIGINAL",
      "PRIMARY",
      "M",
      "MB",
      "ND",
      "MOSAIC"
    ],
    "ImagingFrequency": 123.191,
    "InPlanePhaseEncodingDirectionDICOM": "COL",
    "InstitutionAddress": "Washington_Place_6_NYC_NYC_US_10003",
    "InstitutionName": "NYU_-_CBI",
    "InstitutionalDepartmentName": "Department",
    "MRAcquisitionType": "2D",
    "MagneticFieldStrength": 3,
    "Manufacturer": "Siemens",
    "ManufacturersModelName": "Prisma",
    "Modality": "MR",
    "MultibandAccelerationFactor": 6,
    "NumberOfVolumes": 192,
    "PartialFourier": 1,
    "PatientPosition": "HFS",
    "PercentPhaseFOV": 100,
    "PhaseEncodingDirection": "j",
    "PhaseEncodingSteps": 104,
    "PhaseResolution": 1,
    "PixelBandwidth": 2290,
    "ProcedureStepDescription": "Investigators_Winawer",
    "ProtocolName": "cmrr_mbepi_s6_2mm_66sl_PA_task-prf",
    "PulseSequenceDetails": "%CustomerSeq%_cmrr_mbep2d_bold",
    "ReceiveCoilActiveElements": "HC1-7",
    "ReceiveCoilName": "HeadNeck_64",
    "ReconMatrixPE": 104,
    "RepetitionTime": 1,
    "SAR": 0.0690553,
    "ScanOptions": "FS",
    "ScanningSequence": "EP",
    "SequenceName": "epfid2d1_104",
    "SequenceVariant": "SK_SS",
    "SeriesDescription": "cmrr_mbepi_s6_2mm_66sl_PA_task-prf",
    "SeriesNumber": 20,
    "ShimSetting": [
      276,
      -12659,
      -8446,
      255,
      -13,
      -36,
      -149,
      11
    ],
    "SliceThickness": 2,
    "SliceTiming": [
      0,
      0.535,
      0.09,
      0.625,
      0.1775,
      0.7125,
      0.2675,
      0.8025,
      0.3575,
      0.89,
      0.445,
      0,
      0.535,
      0.09,
      0.625,
      0.1775,
      0.7125,
      0.2675,
      0.8025,
      0.3575,
      0.89,
      0.445,
      0,
      0.535,
      0.09,
      0.625,
      0.1775,
      0.7125,
      0.2675,
      0.8025,
      0.3575,
      0.89,
      0.445,
      0,
      0.535,
      0.09,
      0.625,
      0.1775,
      0.7125,
      0.2675,
      0.8025,
      0.3575,
      0.89,
      0.445,
      0,
      0.535,
      0.09,
      0.625,
      0.1775,
      0.7125,
      0.2675,
      0.8025,
      0.3575,
      0.89,
      0.445,
      0,
      0.535,
      0.09,
      0.625,
      0.1775,
      0.7125,
      0.2675,
      0.8025,
      0.3575,
      0.89,
      0.445
    ],
    "SoftwareVersions": "syngo_MR_E11",
    "SpacingBetweenSlices": 2,
    "StationName": "AWP166018",
    "TaskName": "prf",
    "TotalReadoutTime": 0.0597409,
    "TxRefAmp": 214.126,
    "WipMemBlock": "8afc09ff-1993-4210-a988-25e560d73831||Sequence: R016 ve11c/master r/8780670; Nov 27 2017 15:05:12 by eja",
    "acq_id": "PA",
    "dataset": "unknown",
    "dcmmeta_affine": [
      [
        -1.9971342086791992,
        -0.05613384768366814,
        0.0911252498626709,
        109.48966979980469
      ],
      [
        -0.06167455017566681,
        1.9952876567840576,
        -0.12256956845521927,
        -78.9878921508789
      ],
      [
        0.0874703899025917,
        0.12520399689674377,
        1.9941596984863281,
        -46.27001953125
      ],
      [
        0.0,
        0.0,
        0.0,
        1.0
      ]
    ],
    "dcmmeta_reorient_transform": [
      [
        0.0,
        -1.0,
        0.0,
        103.0
      ],
      [
        1.0,
        0.0,
        0.0,
        0.0
      ],
      [
        0.0,
        0.0,
        1.0,
        0.0
      ],
      [
        0.0,
        0.0,
        0.0,
        1.0
      ]
    ],
    "dcmmeta_shape": [
      104,
      104,
      66,
      192
    ],
    "dcmmeta_slice_dim": 2,
    "dcmmeta_version": 0.6,
    "global": {
      "const": {
        "AccessionNumber": "k42w5s4h",
        "AcquisitionMatrix": [
          104,
          0,
          0,
          104
        ],
        "AngioFlag": "N",
        "BitsAllocated": 16,
        "BitsStored": 16,
        "BodyPartExamined": "BRAIN",
        "Columns": 936,
        "EchoNumbers": 1,
        "EchoTime": 37.0,
        "EchoTrainLength": 104,
        "FlipAngle": 68.0,
        "HighBit": 15,
        "ImageOrientationPatient": [
          0.99856712098203,
          0.03083727596915,
          0.04373519526036,
          -0.0280669243905,
          0.9976438430386,
          -0.0626019983901
        ],
        "ImagePositionPatient": [
          -911.16404598822,
          -982.22303037893,
          -17.676827208324
        ],
        "ImageType": [
          "ORIGINAL",
          "PRIMARY",
          "M",
          "MB",
          "ND",
          "MOSAIC"
        ],
        "ImagedNucleus": "1H",
        "ImagingFrequency": 123.190719,
        "InPlanePhaseEncodingDirection": "COL",
        "MRAcquisitionType": "2D",
        "MagneticFieldStrength": 3.0,
        "Manufacturer": "SIEMENS",
        "ManufacturerModelName": "Prisma",
        "Modality": "MR",
        "NumberOfAverages": 1.0,
        "NumberOfPhaseEncodingSteps": 104,
        "PercentPhaseFieldOfView": 100.0,
        "PercentSampling": 100.0,
        "PerformedProcedureStepStartTime": "124544.430000",
        "PhotometricInterpretation": "MONOCHROME2",
        "PixelBandwidth": 2290.0,
        "PixelRepresentation": 0,
        "PixelSpacing": [
          2.0,
          2.0
        ],
        "ProtocolName": "cmrr_mbepi_s6_2mm_66sl_PA_task-prf",
        "RepetitionTime": 1000.0,
        "Rows": 936,
        "SAR": 0.06905534704451,
        "SamplesPerPixel": 1,
        "ScanOptions": "FS",
        "ScanningSequence": "EP",
        "SequenceName": "epfid2d1_104",
        "SequenceVariant": [
          "SK",
          "SS"
        ],
        "SeriesDescription": "cmrr_mbepi_s6_2mm_66sl_PA_task-prf",
        "SeriesNumber": 20,
        "SeriesTime": "132741.147000",
        "SliceLocation": -36.305511040149,
        "SliceThickness": 2.0,
        "SmallestImagePixelValue": 0,
        "SoftwareVersions": "syngo MR E11",
        "SpacingBetweenSlices": 2.0000000042274,
        "SpecificCharacterSet": "ISO_IR 100",
        "StudyID": "1",
        "StudyTime": "124544.358000",
        "TransmitCoilName": "Body",
        "VariableFlipAngleFlag": "N",
        "WindowCenterWidthExplanation": "Algo1",
        "dBdt": 0.0
      },
      "slices": {}
    },
    "modality": "bold",
    "run_id": 6,
    "session_id": "nyu3t01",
    "subject_id": "wlsubj120",
    "task_id": "prf",
    "time": {
      "samples": {
        "AcquisitionNumber": [
          1,
          2,
          3,
          4,
          5,
          6,
          7,
          8,
          9,
          10,
          11,
          12,
          13,
          14,
          15,
          16,
          17,
          18,
          19,
          20,
          21,
          22,
          23,
          24,
          25,
          26,
          27,
          28,
          29,
          30,
          31,
          32,
          33,
          34,
          35,
          36,
          37,
          38,
          39,
          40,
          41,
          42,
          43,
          44,
          45,
          46,
          47,
          48,
          49,
          50,
          51,
          52,
          53,
          54,
          55,
          56,
          57,
          58,
          59,
          60,
          61,
          62,
          63,
          64,
          65,
          66,
          67,
          68,
          69,
          70,
          71,
          72,
          73,
          74,
          75,
          76,
          77,
          78,
          79,
          80,
          81,
          82,
          83,
          84,
          85,
          86,
          87,
          88,
          89,
          90,
          91,
          92,
          93,
          94,
          95,
          96,
          97,
          98,
          99,
          100,
          101,
          102,
          103,
          104,
          105,
          106,
          107,
          108,
          109,
          110,
          111,
          112,
          113,
          114,
          115,
          116,
          117,
          118,
          119,
          120,
          121,
          122,
          123,
          124,
          125,
          126,
          127,
          128,
          129,
          130,
          131,
          132,
          133,
          134,
          135,
          136,
          137,
          138,
          139,
          140,
          141,
          142,
          143,
          144,
          145,
          146,
          147,
          148,
          149,
          150,
          151,
          152,
          153,
          154,
          155,
          156,
          157,
          158,
          159,
          160,
          161,
          162,
          163,
          164,
          165,
          166,
          167,
          168,
          169,
          170,
          171,
          172,
          173,
          174,
          175,
          176,
          177,
          178,
          179,
          180,
          181,
          182,
          183,
          184,
          185,
          186,
          187,
          188,
          189,
          190,
          191,
          192
        ],
        "AcquisitionTime": [
          "132634.490000",
          "132635.490000",
          "132636.490000",
          "132637.490000",
          "132638.490000",
          "132639.490000",
          "132640.490000",
          "132641.490000",
          "132642.490000",
          "132643.490000",
          "132644.490000",
          "132645.490000",
          "132646.490000",
          "132647.490000",
          "132648.490000",
          "132649.490000",
          "132650.490000",
          "132651.490000",
          "132652.490000",
          "132653.490000",
          "132654.490000",
          "132655.490000",
          "132656.490000",
          "132657.490000",
          "132658.490000",
          "132659.490000",
          "132700.490000",
          "132701.490000",
          "132702.490000",
          "132703.490000",
          "132704.490000",
          "132705.490000",
          "132706.490000",
          "132707.490000",
          "132708.490000",
          "132709.490000",
          "132710.490000",
          "132711.490000",
          "132712.490000",
          "132713.490000",
          "132714.490000",
          "132715.490000",
          "132716.490000",
          "132717.490000",
          "132718.490000",
          "132719.490000",
          "132720.490000",
          "132721.490000",
          "132722.490000",
          "132723.490000",
          "132724.490000",
          "132725.490000",
          "132726.490000",
          "132727.490000",
          "132728.490000",
          "132729.490000",
          "132730.490000",
          "132731.490000",
          "132732.490000",
          "132733.490000",
          "132734.490000",
          "132735.490000",
          "132736.490000",
          "132737.490000",
          "132738.490000",
          "132739.490000",
          "132740.490000",
          "132741.490000",
          "132742.490000",
          "132743.490000",
          "132744.490000",
          "132745.490000",
          "132746.490000",
          "132747.490000",
          "132748.490000",
          "132749.490000",
          "132750.490000",
          "132751.490000",
          "132752.490000",
          "132753.490000",
          "132754.490000",
          "132755.490000",
          "132756.490000",
          "132757.490000",
          "132758.490000",
          "132759.490000",
          "132800.490000",
          "132801.490000",
          "132802.490000",
          "132803.490000",
          "132804.490000",
          "132805.490000",
          "132806.490000",
          "132807.490000",
          "132808.490000",
          "132809.490000",
          "132810.490000",
          "132811.490000",
          "132812.490000",
          "132813.490000",
          "132814.490000",
          "132815.490000",
          "132816.490000",
          "132817.490000",
          "132818.490000",
          "132819.490000",
          "132820.490000",
          "132821.490000",
          "132822.490000",
          "132823.490000",
          "132824.490000",
          "132825.490000",
          "132826.490000",
          "132827.490000",
          "132828.490000",
          "132829.490000",
          "132830.490000",
          "132831.490000",
          "132832.490000",
          "132833.490000",
          "132834.490000",
          "132835.490000",
          "132836.490000",
          "132837.490000",
          "132838.490000",
          "132839.490000",
          "132840.490000",
          "132841.490000",
          "132842.490000",
          "132843.490000",
          "132844.490000",
          "132845.490000",
          "132846.490000",
          "132847.490000",
          "132848.490000",
          "132849.490000",
          "132850.490000",
          "132851.490000",
          "132852.490000",
          "132853.490000",
          "132854.490000",
          "132855.490000",
          "132856.490000",
          "132857.490000",
          "132858.490000",
          "132859.490000",
          "132900.490000",
          "132901.490000",
          "132902.490000",
          "132903.490000",
          "132904.490000",
          "132905.490000",
          "132906.490000",
          "132907.490000",
          "132908.490000",
          "132909.490000",
          "132910.490000",
          "132911.490000",
          "132912.490000",
          "132913.490000",
          "132914.490000",
          "132915.490000",
          "132916.490000",
          "132917.490000",
          "132918.490000",
          "132919.490000",
          "132920.490000",
          "132921.490000",
          "132922.490000",
          "132923.490000",
          "132924.490000",
          "132925.490000",
          "132926.490000",
          "132927.490000",
          "132928.490000",
          "132929.490000",
          "132930.490000",
          "132931.490000",
          "132932.490000",
          "132933.490000",
          "132934.490000",
          "132935.490000",
          "132936.490000",
          "132937.490000",
          "132938.490000",
          "132939.490000",
          "132940.490000",
          "132941.490000",
          "132942.490000",
          "132943.490000",
          "132944.490000",
          "132945.490000"
        ],
        "ContentTime": [
          "132741.149000",
          "132741.153000",
          "132741.156000",
          "132741.159000",
          "132741.162000",
          "132741.165000",
          "132741.168000",
          "132741.171000",
          "132741.174000",
          "132741.177000",
          "132741.180000",
          "132741.183000",
          "132741.186000",
          "132741.189000",
          "132741.192000",
          "132741.195000",
          "132741.198000",
          "132801.120000",
          "132801.123000",
          "132801.126000",
          "132801.129000",
          "132801.132000",
          "132801.135000",
          "132801.138000",
          "132801.141000",
          "132801.144000",
          "132801.147000",
          "132801.150000",
          "132801.153000",
          "132801.156000",
          "132801.159000",
          "132801.162000",
          "132801.165000",
          "132801.168000",
          "132801.171000",
          "132801.174000",
          "132801.177000",
          "132801.180000",
          "132801.183000",
          "132801.186000",
          "132801.189000",
          "132801.192000",
          "132801.195000",
          "132801.198000",
          "132801.201000",
          "132821.120000",
          "132821.124000",
          "132821.127000",
          "132821.131000",
          "132821.134000",
          "132821.137000",
          "132821.140000",
          "132821.143000",
          "132821.146000",
          "132821.149000",
          "132821.152000",
          "132821.155000",
          "132821.158000",
          "132821.161000",
          "132821.164000",
          "132821.167000",
          "132821.170000",
          "132821.173000",
          "132821.176000",
          "132821.179000",
          "132821.182000",
          "132821.185000",
          "132821.188000",
          "132821.191000",
          "132821.194000",
          "132821.197000",
          "132821.200000",
          "132821.203000",
          "132841.120000",
          "132841.123000",
          "132841.126000",
          "132841.129000",
          "132841.132000",
          "132841.135000",
          "132841.138000",
          "132841.141000",
          "132841.144000",
          "132841.147000",
          "132841.150000",
          "132841.153000",
          "132841.156000",
          "132841.159000",
          "132841.162000",
          "132841.165000",
          "132841.168000",
          "132841.171000",
          "132841.174000",
          "132841.177000",
          "132841.180000",
          "132841.183000",
          "132841.186000",
          "132841.189000",
          "132841.192000",
          "132841.195000",
          "132841.198000",
          "132841.201000",
          "132841.204000",
          "132901.120000",
          "132901.123000",
          "132901.126000",
          "132901.129000",
          "132901.132000",
          "132901.135000",
          "132901.138000",
          "132901.141000",
          "132901.144000",
          "132901.147000",
          "132901.150000",
          "132901.153000",
          "132901.156000",
          "132901.162000",
          "132901.165000",
          "132901.168000",
          "132901.171000",
          "132901.174000",
          "132901.188000",
          "132901.191000",
          "132901.194000",
          "132901.197000",
          "132901.200000",
          "132901.203000",
          "132901.206000",
          "132901.209000",
          "132901.212000",
          "132901.215000",
          "132921.119000",
          "132921.122000",
          "132921.125000",
          "132921.128000",
          "132921.131000",
          "132921.134000",
          "132921.137000",
          "132921.140000",
          "132921.143000",
          "132921.146000",
          "132921.149000",
          "132921.152000",
          "132921.156000",
          "132921.159000",
          "132921.162000",
          "132921.165000",
          "132921.168000",
          "132921.171000",
          "132921.174000",
          "132921.177000",
          "132921.180000",
          "132921.183000",
          "132921.186000",
          "132921.189000",
          "132921.192000",
          "132921.195000",
          "132921.198000",
          "132921.201000",
          "132941.119000",
          "132941.122000",
          "132941.125000",
          "132941.128000",
          "132941.131000",
          "132941.134000",
          "132941.137000",
          "132941.140000",
          "132941.143000",
          "132941.146000",
          "132941.149000",
          "132941.153000",
          "132941.156000",
          "132941.159000",
          "132941.162000",
          "132941.165000",
          "132941.168000",
          "132941.171000",
          "132941.174000",
          "132941.177000",
          "132941.180000",
          "132941.183000",
          "132941.186000",
          "132941.189000",
          "132941.192000",
          "132941.195000",
          "132941.198000",
          "132941.201000",
          "132946.674000",
          "132946.677000",
          "132946.680000",
          "132946.683000",
          "132946.686000",
          "132946.689000"
        ],
        "InstanceCreationTime": [
          "132741.149000",
          "132741.153000",
          "132741.156000",
          "132741.159000",
          "132741.162000",
          "132741.165000",
          "132741.168000",
          "132741.171000",
          "132741.174000",
          "132741.177000",
          "132741.180000",
          "132741.183000",
          "132741.186000",
          "132741.189000",
          "132741.192000",
          "132741.195000",
          "132741.198000",
          "132801.120000",
          "132801.123000",
          "132801.126000",
          "132801.129000",
          "132801.132000",
          "132801.135000",
          "132801.138000",
          "132801.141000",
          "132801.144000",
          "132801.147000",
          "132801.150000",
          "132801.153000",
          "132801.156000",
          "132801.159000",
          "132801.162000",
          "132801.165000",
          "132801.168000",
          "132801.171000",
          "132801.174000",
          "132801.177000",
          "132801.180000",
          "132801.183000",
          "132801.186000",
          "132801.189000",
          "132801.192000",
          "132801.195000",
          "132801.198000",
          "132801.201000",
          "132821.120000",
          "132821.124000",
          "132821.127000",
          "132821.131000",
          "132821.134000",
          "132821.137000",
          "132821.140000",
          "132821.143000",
          "132821.146000",
          "132821.149000",
          "132821.152000",
          "132821.155000",
          "132821.158000",
          "132821.161000",
          "132821.164000",
          "132821.167000",
          "132821.170000",
          "132821.173000",
          "132821.176000",
          "132821.179000",
          "132821.182000",
          "132821.185000",
          "132821.188000",
          "132821.191000",
          "132821.194000",
          "132821.197000",
          "132821.200000",
          "132821.203000",
          "132841.120000",
          "132841.123000",
          "132841.126000",
          "132841.129000",
          "132841.132000",
          "132841.135000",
          "132841.138000",
          "132841.141000",
          "132841.144000",
          "132841.147000",
          "132841.150000",
          "132841.153000",
          "132841.156000",
          "132841.159000",
          "132841.162000",
          "132841.165000",
          "132841.168000",
          "132841.171000",
          "132841.174000",
          "132841.177000",
          "132841.180000",
          "132841.183000",
          "132841.186000",
          "132841.189000",
          "132841.192000",
          "132841.195000",
          "132841.198000",
          "132841.201000",
          "132841.204000",
          "132901.120000",
          "132901.123000",
          "132901.126000",
          "132901.129000",
          "132901.132000",
          "132901.135000",
          "132901.138000",
          "132901.141000",
          "132901.144000",
          "132901.147000",
          "132901.150000",
          "132901.153000",
          "132901.156000",
          "132901.162000",
          "132901.165000",
          "132901.168000",
          "132901.171000",
          "132901.174000",
          "132901.188000",
          "132901.191000",
          "132901.194000",
          "132901.197000",
          "132901.200000",
          "132901.203000",
          "132901.206000",
          "132901.209000",
          "132901.212000",
          "132901.215000",
          "132921.119000",
          "132921.122000",
          "132921.125000",
          "132921.128000",
          "132921.131000",
          "132921.134000",
          "132921.137000",
          "132921.140000",
          "132921.143000",
          "132921.146000",
          "132921.149000",
          "132921.152000",
          "132921.156000",
          "132921.159000",
          "132921.162000",
          "132921.165000",
          "132921.168000",
          "132921.171000",
          "132921.174000",
          "132921.177000",
          "132921.180000",
          "132921.183000",
          "132921.186000",
          "132921.189000",
          "132921.192000",
          "132921.195000",
          "132921.198000",
          "132921.201000",
          "132941.119000",
          "132941.122000",
          "132941.125000",
          "132941.128000",
          "132941.131000",
          "132941.134000",
          "132941.137000",
          "132941.140000",
          "132941.143000",
          "132941.146000",
          "132941.149000",
          "132941.153000",
          "132941.156000",
          "132941.159000",
          "132941.162000",
          "132941.165000",
          "132941.168000",
          "132941.171000",
          "132941.174000",
          "132941.177000",
          "132941.180000",
          "132941.183000",
          "132941.186000",
          "132941.189000",
          "132941.192000",
          "132941.195000",
          "132941.198000",
          "132941.201000",
          "132946.674000",
          "132946.677000",
          "132946.680000",
          "132946.683000",
          "132946.686000",
          "132946.689000"
        ],
        "InstanceNumber": [
          1,
          2,
          3,
          4,
          5,
          6,
          7,
          8,
          9,
          10,
          11,
          12,
          13,
          14,
          15,
          16,
          17,
          18,
          19,
          20,
          21,
          22,
          23,
          24,
          25,
          26,
          27,
          28,
          29,
          30,
          31,
          32,
          33,
          34,
          35,
          36,
          37,
          38,
          39,
          40,
          41,
          42,
          43,
          44,
          45,
          46,
          47,
          48,
          49,
          50,
          51,
          52,
          53,
          54,
          55,
          56,
          57,
          58,
          59,
          60,
          61,
          62,
          63,
          64,
          65,
          66,
          67,
          68,
          69,
          70,
          71,
          72,
          73,
          74,
          75,
          76,
          77,
          78,
          79,
          80,
          81,
          82,
          83,
          84,
          85,
          86,
          87,
          88,
          89,
          90,
          91,
          92,
          93,
          94,
          95,
          96,
          97,
          98,
          99,
          100,
          101,
          102,
          103,
          104,
          105,
          106,
          107,
          108,
          109,
          110,
          111,
          112,
          113,
          114,
          115,
          116,
          117,
          118,
          119,
          120,
          121,
          122,
          123,
          124,
          125,
          126,
          127,
          128,
          129,
          130,
          131,
          132,
          133,
          134,
          135,
          136,
          137,
          138,
          139,
          140,
          141,
          142,
          143,
          144,
          145,
          146,
          147,
          148,
          149,
          150,
          151,
          152,
          153,
          154,
          155,
          156,
          157,
          158,
          159,
          160,
          161,
          162,
          163,
          164,
          165,
          166,
          167,
          168,
          169,
          170,
          171,
          172,
          173,
          174,
          175,
          176,
          177,
          178,
          179,
          180,
          181,
          182,
          183,
          184,
          185,
          186,
          187,
          188,
          189,
          190,
          191,
          192
        ],
        "LargestImagePixelValue": [
          39814,
          39432,
          38282,
          37879,
          37990,
          37196,
          37977,
          38131,
          37186,
          37374,
          37200,
          37410,
          36998,
          37262,
          37300,
          37166,
          37490,
          37358,
          37156,
          37350,
          37229,
          37580,
          37349,
          37084,
          37078,
          37274,
          37422,
          37517,
          37363,
          37272,
          37356,
          36896,
          37413,
          37158,
          37265,
          37504,
          37196,
          36958,
          37462,
          37173,
          36882,
          37187,
          37229,
          36507,
          37276,
          37121,
          37280,
          36828,
          36995,
          36766,
          36764,
          36990,
          36996,
          36517,
          37139,
          36767,
          36714,
          36969,
          36564,
          36932,
          36295,
          36472,
          36801,
          36719,
          36755,
          36989,
          36671,
          36828,
          37042,
          36369,
          36846,
          36391,
          36658,
          36648,
          36658,
          36939,
          36541,
          37166,
          36494,
          36443,
          37117,
          36794,
          36426,
