{
  "AcquisitionMatrixPE": 104,
  "AcquisitionNumber": 1,
  "AcquisitionTime": "12:30:29.600000",
  "BandwidthPerPixelPhaseEncode": 16.578,
  "BaseResolution": 104,
  "BodyPartExamined": "BRAIN",
  "ConsistencyInfo": "N4_VE11C_LATEST_20160120",
  "ConversionSoftware": "dcm2niix",
  "ConversionSoftwareVersion": "v1.0.20190902",
  "DerivedVendorReportedEchoSpacing": 0.000580009,
  "DeviceSerialNumber": "166018",
  "DwellTime": 2.1e-06,
  "EchoTime": 0.037,
  "EchoTrainLength": 104,
  "EffectiveEchoSpacing": 0.000580009,
  "FlipAngle": 68,
  "ImageComments": "Unaliased_MB6_PE3_LB",
  "ImageOrientationPatientDICOM": [0.998575, 0.0214317, 0.0488661, -0.00801724, 0.965659, -0.259688],
  "ImageType": [
    "ORIGINAL",
    "PRIMARY",
    "M",
    "MB",
    "ND",
    "MOSAIC"
],
  "ImagingFrequency": 123.191,
  "InPlanePhaseEncodingDirectionDICOM": "COL",
  "InstitutionAddress": "Washington_Place_6_NYC_NYC_US_10003",
  "InstitutionName": "NYU_Center_for_Brain_Imaging",
  "InstitutionalDepartmentName": "Department",
  "MRAcquisitionType": "2D",
  "MagneticFieldStrength": 3,
  "Manufacturer": "Siemens",
  "ManufacturersModelName": "Prisma",
  "Modality": "MR",
  "MultibandAccelerationFactor": 6,
  "PartialFourier": 1,
  "PatientPosition": "HFS",
  "PercentPhaseFOV": 100,
  "PhaseEncodingDirection": "j",
  "PhaseEncodingSteps": 104,
  "PhaseResolution": 1,
  "PixelBandwidth": 2290,
  "ProcedureStepDescription": "Investigators_Winawer",
  "ProtocolName": "cmrr_mbepi_s6_2mm_66sl_PA_task-prf",
  "PulseSequenceDetails": "%CustomerSeq%_cmrr_mbep2d_bold",
  "ReceiveCoilActiveElements": "HC1-7",
  "ReceiveCoilName": "HeadNeck_64",
  "ReconMatrixPE": 104,
  "RepetitionTime": 1,
  "SAR": 0.0589005,
  "ScanOptions": "FS",
  "ScanningSequence": "EP",
  "SequenceName": "epfid2d1_104",
  "SequenceVariant": "SK_SS",
  "SeriesDescription": "cmrr_mbepi_s6_2mm_66sl_PA_task-prf",
  "SeriesNumber": 12,
  "ShimSetting": [257, -12607, -8498, 451, -21, 8, -133, -44],
  "SliceThickness": 2,
  "SliceTiming": [0, 0.535, 0.09, 0.625, 0.18, 0.7125, 0.2675, 0.8025, 0.3575, 0.8925, 0.4475, 0, 0.535, 0.09, 0.625, 0.18, 0.7125, 0.2675, 0.8025, 0.3575, 0.8925, 0.4475, 0, 0.535, 0.09, 0.625, 0.18, 0.7125, 0.2675, 0.8025, 0.3575, 0.8925, 0.4475, 0, 0.535, 0.09, 0.625, 0.18, 0.7125, 0.2675, 0.8025, 0.3575, 0.8925, 0.4475, 0, 0.535, 0.09, 0.625, 0.18, 0.7125, 0.2675, 0.8025, 0.3575, 0.8925, 0.4475, 0, 0.535, 0.09, 0.625, 0.18, 0.7125, 0.2675, 0.8025, 0.3575, 0.8925, 0.4475],
  "SoftwareVersions": "syngo_MR_E11",
  "SpacingBetweenSlices": 2,
  "StationName": "AWP166018",
  "TaskName": "prf",
  "TotalReadoutTime": 0.0597409,
  "TxRefAmp": 203.508,
  "WipMemBlock": "f1bda3a1-35b3-48ae-ad7d-857b88a68493||Sequence: R016 ve11c/master r/8780670; Nov 27 2017 15:05:12 by eja",
  "dcmmeta_affine": [
    [-1.9971507787704468, -0.016034480184316635, 0.10550722479820251, 107.01654815673828],
    [-0.04286348447203636, 1.9313186407089233, -0.5178521871566772, -67.95065307617188],
    [0.0977322980761528, 0.5193756818771362, 1.9289108514785767, -81.57173919677734],
    [0.0, 0.0, 0.0, 1.0]
],
  "dcmmeta_reorient_transform": [
    [0.0, -1.0, 0.0, 103.0],
    [1.0, 0.0, 0.0, 0.0],
    [0.0, 0.0, 1.0, 0.0],
    [0.0, 0.0, 0.0, 1.0]
],
  "dcmmeta_shape": [104, 104, 66, 192],
  "dcmmeta_slice_dim": 2,
  "dcmmeta_version": 0.6,
  "global": {
    "const": {
      "AccessionNumber": "jpvhv9d1",
      "AcquisitionMatrix": [104, 0, 0, 104],
      "AngioFlag": "N",
      "BitsAllocated": 16,
      "BitsStored": 16,
      "BodyPartExamined": "BRAIN",
      "Columns": 936,
      "EchoNumbers": 1,
      "EchoTime": 37.0,
      "EchoTrainLength": 104,
      "FlipAngle": 68.0,
      "HighBit": 15,
      "ImageOrientationPatient": [0.99857537523322, 0.02143174273425, 0.04886614759947, -0.0080172399129, 0.96565933540112, -0.2596878353271],
      "ImagePositionPatient": [-929.50936805185, -952.23494665973, 147.327600537],
      "ImageType": [
        "ORIGINAL",
        "PRIMARY",
        "M",
        "MB",
        "ND",
        "MOSAIC"
],
      "ImagedNucleus": "1H",
      "ImagingFrequency": 123.19085,
      "InPlanePhaseEncodingDirection": "COL",
      "MRAcquisitionType": "2D",
      "MagneticFieldStrength": 3.0,
      "Manufacturer": "SIEMENS",
      "ManufacturerModelName": "Prisma",
      "Modality": "MR",
      "NumberOfAverages": 1.0,
      "NumberOfPhaseEncodingSteps": 104,
      "PercentPhaseFieldOfView": 100.0,
      "PercentSampling": 100.0,
      "PerformedProcedureStepStartTime": "120926.853000",
      "PhotometricInterpretation": "MONOCHROME2",
      "PixelBandwidth": 2290.0,
      "PixelRepresentation": 0,
      "PixelSpacing": [2.0, 2.0],
      "ProtocolName": "cmrr_mbepi_s6_2mm_66sl_PA_task-prf",
      "RepetitionTime": 1000.0,
      "Rows": 936,
      "SAR": 0.05890051524164,
      "SamplesPerPixel": 1,
      "ScanOptions": "FS",
      "ScanningSequence": "EP",
      "SequenceName": "epfid2d1_104",
      "SequenceVariant": [
        "SK",
        "SS"
],
      "SeriesDescription": "cmrr_mbepi_s6_2mm_66sl_PA_task-prf",
      "SeriesNumber": 12,
      "SeriesTime": "123155.575000",
      "SliceLocation": -55.432599595336,
      "SliceThickness": 2.0,
      "SmallestImagePixelValue": 0,
      "SoftwareVersions": "syngo MR E11",
      "SpacingBetweenSlices": 1.9999999695103,
      "SpecificCharacterSet": "ISO_IR 100",
      "StudyID": "1",
      "StudyTime": "120926.714000",
      "TransmitCoilName": "Body",
      "VariableFlipAngleFlag": "N",
      "WindowCenterWidthExplanation": "Algo1",
      "dBdt": 0.0},
    "slices": {}
  },
  "time": {
    "samples": {
      "AcquisitionNumber": [1, 2, 3, 4, 5, 6, 7, 8, 9, 10, 11, 12, 13, 14, 15, 16, 17, 18, 19, 20, 21, 22, 23, 24, 25, 26, 27, 28, 29, 30, 31, 32, 33, 34, 35, 36, 37, 38, 39, 40, 41, 42, 43, 44, 45, 46, 47, 48, 49, 50, 51, 52, 53, 54, 55, 56, 57, 58, 59, 60, 61, 62, 63, 64, 65, 66, 67, 68, 69, 70, 71, 72, 73, 74, 75, 76, 77, 78, 79, 80, 81, 82, 83, 84, 85, 86, 87, 88, 89, 90, 91, 92, 93, 94, 95, 96, 97, 98, 99, 100, 101, 102, 103, 104, 105, 106, 107, 108, 109, 110, 111, 112, 113, 114, 115, 116, 117, 118, 119, 120, 121, 122, 123, 124, 125, 126, 127, 128, 129, 130, 131, 132, 133, 134, 135, 136, 137, 138, 139, 140, 141, 142, 143, 144, 145, 146, 147, 148, 149, 150, 151, 152, 153, 154, 155, 156, 157, 158, 159, 160, 161, 162, 163, 164, 165, 166, 167, 168, 169, 170, 171, 172, 173, 174, 175, 176, 177, 178, 179, 180, 181, 182, 183, 184, 185, 186, 187, 188, 189, 190, 191, 192],
      "AcquisitionTime": ["123029.600000", "123030.600000", "123031.600000", "123032.600000", "123033.600000", "123034.600000", "123035.600000", "123036.600000", "123037.600000", "123038.600000", "123039.600000", "123040.600000", "123041.600000", "123042.600000", "123043.600000", "123044.600000", "123045.600000", "123046.600000", "123047.600000", "123048.600000", "123049.600000", "123050.600000", "123051.600000", "123052.600000", "123053.600000", "123054.600000", "123055.600000", "123056.600000", "123057.600000", "123058.600000", "123059.600000", "123100.600000", "123101.600000", "123102.600000", "123103.600000", "123104.600000", "123105.600000", "123106.600000", "123107.600000", "123108.600000", "123109.600000", "123110.600000", "123111.600000", "123112.600000", "123113.600000", "123114.600000", "123115.600000", "123116.600000", "123117.600000", "123118.600000", "123119.600000", "123120.600000", "123121.600000", "123122.600000", "123123.600000", "123124.600000", "123125.600000", "123126.600000", "123127.600000", "123128.600000", "123129.600000", "123130.600000", "123131.600000", "123132.600000", "123133.600000", "123134.600000", "123135.600000", "123136.600000", "123137.600000", "123138.600000", "123139.600000", "123140.600000", "123141.600000", "123142.600000", "123143.600000", "123144.600000", "123145.600000", "123146.600000", "123147.600000", "123148.600000", "123149.600000", "123150.600000", "123151.600000", "123152.600000", "123153.600000", "123154.600000", "123155.600000", "123156.600000", "123157.600000", "123158.600000", "123159.600000", "123200.600000", "123201.600000", "123202.600000", "123203.600000", "123204.600000", "123205.600000", "123206.600000", "123207.600000", "123208.600000", "123209.600000", "123210.600000", "123211.600000", "123212.600000", "123213.600000", "123214.600000", "123215.600000", "123216.600000", "123217.600000", "123218.600000", "123219.600000", "123220.600000", "123221.600000", "123222.600000", "123223.600000", "123224.600000", "123225.600000", "123226.600000", "123227.600000", "123228.600000", "123229.600000", "123230.600000", "123231.600000", "123232.600000", "123233.600000", "123234.600000", "123235.600000", "123236.600000", "123237.600000", "123238.600000", "123239.600000", "123240.600000", "123241.600000", "123242.600000", "123243.600000", "123244.600000", "123245.600000", "123246.600000", "123247.600000", "123248.600000", "123249.600000", "123250.600000", "123251.600000", "123252.600000", "123253.600000", "123254.600000", "123255.600000", "123256.600000", "123257.600000", "123258.600000", "123259.600000", "123300.600000", "123301.600000", "123302.600000", "123303.600000", "123304.600000", "123305.600000", "123306.600000", "123307.600000", "123308.600000", "123309.600000", "123310.600000", "123311.600000", "123312.600000", "123313.600000", "123314.600000", "123315.600000", "123316.600000", "123317.600000", "123318.600000", "123319.600000", "123320.600000", "123321.600000", "123322.600000", "123323.600000", "123324.600000", "123325.600000", "123326.600000", "123327.600000", "123328.600000", "123329.600000", "123330.600000", "123331.600000", "123332.600000", "123333.600000", "123334.600000", "123335.600000", "123336.600000", "123337.600000", "123338.600000", "123339.600000", "123340.600000"],
      "ContentTime": ["123155.577000", "123155.582000", "123155.585000", "123155.588000", "123155.591000", "123155.594000", "123155.597000", "123155.600000", "123155.609000", "123155.617000", "123155.620000", "123155.622000", "123155.625000", "123155.628000", "123155.631000", "123155.634000", "123155.637000", "123155.639000", "123155.642000", "123155.645000", "123155.648000", "123155.651000", "123155.654000", "123155.657000", "123155.659000", "123155.662000", "123155.665000", "123155.668000", "123155.671000", "123155.674000", "123155.676000", "123155.679000", "123155.682000", "123155.685000", "123155.688000", "123155.703000", "123155.706000", "123155.709000", "123155.711000", "123155.714000", "123155.717000", "123155.720000", "123215.551000", "123215.554000", "123215.563000", "123215.566000", "123215.569000", "123215.572000", "123215.575000", "123215.578000", "123215.580000", "123215.583000", "123215.586000", "123215.589000", "123215.592000", "123215.598000", "123215.601000", "123215.604000", "123215.607000", "123215.610000", "123215.613000", "123215.616000", "123215.619000", "123215.623000", "123215.626000", "123215.629000", "123215.632000", "123215.635000", "123215.638000", "123215.641000", "123235.551000", "123235.554000", "123235.557000", "123235.559000", "123235.562000", "123235.565000", "123235.568000", "123235.571000", "123235.574000", "123235.577000", "123235.579000", "123235.582000", "123235.585000", "123235.588000", "123235.591000", "123235.594000", "123235.597000", "123235.599000", "123235.602000", "123235.605000", "123235.608000", "123235.611000", "123235.614000", "123235.617000", "123235.620000", "123235.622000", "123235.625000", "123235.628000", "123235.631000", "123255.551000", "123255.560000", "123255.563000", "123255.566000", "123255.568000", "123255.571000", "123255.574000", "123255.577000", "123255.580000", "123255.583000", "123255.586000", "123255.588000", "123255.591000", "123255.594000", "123255.597000", "123255.600000", "123255.603000", "123255.606000", "123255.609000", "123255.612000", "123255.614000", "123255.617000", "123255.620000", "123255.623000", "123255.626000", "123255.629000", "123255.632000", "123255.635000", "123315.550000", "123315.553000", "123315.556000", "123315.559000", "123315.561000", "123315.564000", "123315.567000", "123315.570000", "123315.573000", "123315.576000", "123315.579000", "123315.581000", "123315.584000", "123315.587000", "123315.590000", "123315.593000", "123315.596000", "123315.599000", "123315.602000", "123315.605000", "123315.608000", "123315.610000", "123315.613000", "123315.616000", "123315.619000", "123315.622000", "123315.625000", "123315.628000", "123335.550000", "123335.560000", "123335.563000", "123335.566000", "123335.569000", "123335.572000", "123335.575000", "123335.578000", "123335.581000", "123335.584000", "123335.587000", "123335.590000", "123335.593000", "123335.596000", "123335.599000", "123335.601000", "123335.604000", "123335.607000", "123335.610000", "123335.613000", "123335.616000", "123335.620000", "123335.623000", "123335.626000", "123335.629000", "123335.632000", "123335.635000", "123335.638000", "123335.641000", "123342.085000", "123342.088000", "123342.091000", "123342.094000", "123342.097000", "123342.100000", "123342.103000", "123342.106000"],
      "InstanceCreationTime": ["123155.577000", "123155.582000", "123155.585000", "123155.588000", "123155.591000", "123155.594000", "123155.597000", "123155.600000", "123155.609000", "123155.617000", "123155.620000", "123155.622000", "123155.625000", "123155.628000", "123155.631000", "123155.634000", "123155.637000", "123155.639000", "123155.642000", "123155.645000", "123155.648000", "123155.651000", "123155.654000", "123155.657000", "123155.659000", "123155.662000", "123155.665000", "123155.668000", "123155.671000", "123155.674000", "123155.676000", "123155.679000", "123155.682000", "123155.685000", "123155.688000", "123155.703000", "123155.706000", "123155.709000", "123155.711000", "123155.714000", "123155.717000", "123155.720000", "123215.551000", "123215.554000", "123215.563000", "123215.566000", "123215.569000", "123215.572000", "123215.575000", "123215.578000", "123215.580000", "123215.583000", "123215.586000", "123215.589000", "123215.592000", "123215.598000", "123215.601000", "123215.604000", "123215.607000", "123215.610000", "123215.613000", "123215.616000", "123215.619000", "123215.623000", "123215.626000", "123215.629000", "123215.632000", "123215.635000", "123215.638000", "123215.641000", "123235.551000", "123235.554000", "123235.557000", "123235.559000", "123235.562000", "123235.565000", "123235.568000", "123235.571000", "123235.574000", "123235.577000", "123235.579000", "123235.582000", "123235.585000", "123235.588000", "123235.591000", "123235.594000", "123235.597000", "123235.599000", "123235.602000", "123235.605000", "123235.608000", "123235.611000", "123235.614000", "123235.617000", "123235.620000", "123235.622000", "123235.625000", "123235.628000", "123235.631000", "123255.551000", "123255.560000", "123255.563000", "123255.566000", "123255.568000", "123255.571000", "123255.574000", "123255.577000", "123255.580000", "123255.583000", "123255.586000", "123255.588000", "123255.591000", "123255.594000", "123255.597000", "123255.600000", "123255.603000", "123255.606000", "123255.609000", "123255.612000", "123255.614000", "123255.617000", "123255.620000", "123255.623000", "123255.626000", "123255.629000", "123255.632000", "123255.635000", "123315.550000", "123315.553000", "123315.556000", "123315.559000", "123315.561000", "123315.564000", "123315.567000", "123315.570000", "123315.573000", "123315.576000", "123315.579000", "123315.581000", "123315.584000", "123315.587000", "123315.590000", "123315.593000", "123315.596000", "123315.599000", "123315.602000", "123315.605000", "123315.608000", "123315.610000", "123315.613000", "123315.616000", "123315.619000", "123315.622000", "123315.625000", "123315.628000", "123335.550000", "123335.560000", "123335.563000", "123335.566000", "123335.569000", "123335.572000", "123335.575000", "123335.578000", "123335.581000", "123335.584000", "123335.587000", "123335.590000", "123335.593000", "123335.596000", "123335.599000", "123335.601000", "123335.604000", "123335.607000", "123335.610000", "123335.613000", "123335.616000", "123335.620000", "123335.623000", "123335.626000", "123335.629000", "123335.632000", "123335.635000", "123335.638000", "123335.641000", "123342.085000", "123342.088000", "123342.091000", "123342.094000", "123342.097000", "123342.100000", "123342.103000", "123342.106000"],
      "InstanceNumber": [1, 2, 3, 4, 5, 6, 7, 8, 9, 10, 11, 12, 13, 14, 15, 16, 17, 18, 19, 20, 21, 22, 23, 24, 25, 26, 27, 28, 29, 30, 31, 32, 33, 34, 35, 36, 37, 38, 39, 40, 41, 42, 43, 44, 45, 46, 47, 48, 49, 50, 51, 52, 53, 54, 55, 56, 57, 58, 59, 60, 61, 62, 63, 64, 65, 66, 67, 68, 69, 70, 71, 72, 73, 74, 75, 76, 77, 78, 79, 80, 81, 82, 83, 84, 85, 86, 87, 88, 89, 90, 91, 92, 93, 94, 95, 96, 97, 98, 99, 100, 101, 102, 103, 104, 105, 106, 107, 108, 109, 110, 111, 112, 113, 114, 115, 116, 117, 118, 119, 120, 121, 122, 123, 124, 125, 126, 127, 128, 129, 130, 131, 132, 133, 134, 135, 136, 137, 138, 139, 140, 141, 142, 143, 144, 145, 146, 147, 148, 149, 150, 151, 152, 153, 154, 155, 156, 157, 158, 159, 160, 161, 162, 163, 164, 165, 166, 167, 168, 169, 170, 171, 172, 173, 174, 175, 176, 177, 178, 179, 180, 181, 182, 183, 184, 185, 186, 187, 188, 189, 190, 191, 192],
      "LargestImagePixelValue": [30366, 29940, 29734, 30049, 29707, 29766, 29576, 29106, 29035, 29325, 29569, 29422, 29006, 29588, 30174, 29802, 30595, 30812, 30915, 30981, 31147, 30795, 30362, 29761, 29570, 30166, 30621, 30496, 31065, 31450, 31680, 31893, 31661, 31413, 31464, 31268, 30757, 29698, 29531, 29831, 29776, 30240, 29972, 29549, 29420, 29689, 30307, 29803, 30032, 30066, 30150, 30209, 30351, 30448, 30054, 29545, 29177, 28773, 29481, 30031, 29605, 30037, 29707, 30215, 29376, 28909, 29151, 29914, 30334, 30293, 31391, 31606, 31821, 32002, 32413, 32014, 31713, 31299, 31314, 31065, 31686, 32148, 31990, 32274, 31752, 31493, 30442, 29951, 29874, 30056, 30585, 30607, 29980, 30078, 30071, 29944, 30442, 30332, 30543, 30198, 30433, 30086, 30312, 30252, 30246, 30461, 30739, 30851, 31344, 31255, 31240, 31176, 30861, 30741, 30848, 30719, 30863, 30561, 31122, 31900, 31310, 31260, 30756, 30533, 30672, 30298, 30340, 30375, 30616, 30296, 30536, 30066, 30129, 30590, 30587, 30673, 30549, 30637, 30785, 30569, 30561, 30278, 30711, 30804, 30651, 31089, 30862, 31355, 31351, 31563, 31663, 32140, 31936, 32472, 31792, 31063, 30695, 30443, 30086, 29865, 30030, 30132, 30036, 30995, 30726, 30739, 30891, 30817, 31285, 30660, 30225, 30450, 29991, 30764, 30745, 30818, 30430, 30640, 30744, 31064, 30392, 30337, 30832, 30436, 30861, 30817, 31445, 31061, 30792, 31104, 30983, 31083],
      "WindowCenter": [9511.0, 9477.0, 9469.0, 9460.0, 9461.0, 9453.0, 9431.0, 9430.0, 9423.0, 9429.0, 9428.0, 9427.0, 9421.0, 9438.0, 9448.0, 9474.0, 9494.0, 9495.0, 9494.0, 9493.0, 9500.0, 9488.0, 9481.0, 9468.0, 9470.0, 9490.0, 9503.0, 9506.0, 9519.0, 9526.0, 9511.0, 9506.0, 9499.0, 9499.0, 9506.0, 9508.0, 9497.0, 9484.0, 9485.0, 9501.0, 9501.0, 9511.0, 9499.0, 9493.0, 9486.0, 9492.0, 9504.0, 9493.0, 9499.0, 9506.0, 9521.0, 9524.0, 9532.0, 9524.0, 9524.0, 9507.0, 9501.0, 9494.0, 9512.0, 9516.0, 9511.0, 9502.0, 9501.0, 9513.0, 9496.0, 9485.0, 9497.0, 9503.0, 9515.0, 9515.0, 9525.0, 9524.0, 9529.0, 9529.0, 9534.0, 9535.0, 9530.0, 9529.0, 9530.0, 9533.0, 9545.0, 9552.0, 9545.0, 9535.0, 9514.0, 9506.0, 9494.0, 9488.0, 9486.0, 9494.0, 9506.0, 9498.0, 9479.0, 9470.0, 9468.0, 9466.0, 9468.0, 9482.0, 9483.0, 9486.0, 9491.0, 9488.0, 9499.0, 9500.0, 9499.0, 9501.0, 9509.0, 9517.0, 9521.0, 9527.0, 9521.0, 9517.0, 9502.0, 9507.0, 9508.0, 9516.0, 9525.0, 9535.0, 9549.0, 9562.0, 9564.0, 9554.0, 9537.0, 9528.0, 9527.0, 9519.0, 9526.0, 9529.0, 9536.0, 9536.0, 9528.0, 9514.0, 9500.0, 9503.0, 9509.0, 9518.0, 9521.0, 9519.0, 9517.0, 9509.0, 9501.0, 9502.0, 9509.0, 9509.0, 9509.0, 9509.0, 9502.0, 9506.0, 9506.0, 9505.0, 9512.0, 9520.0, 9527.0, 9534.0, 9524.0, 9517.0, 9498.0, 9499.0, 9492.0, 9492.0, 9491.0, 9492.0, 9490.0, 9502.0, 9503.0, 9513.0, 9528.0, 9531.0, 9534.0, 9523.0, 9509.0, 9501.0, 9492.0, 9503.0, 9511.0, 9513.0, 9507.0, 9513.0, 9514.0, 9512.0, 9508.0, 9507.0, 9513.0, 9510.0, 9514.0, 9506.0, 9510.0, 9503.0, 9495.0, 9493.0, 9499.0, 9495.0],
      "WindowWidth": [20239.0, 20160.0, 20141.0, 20122.0, 20126.0, 20107.0, 20056.0, 20054.0, 20042.0, 20052.0, 20051.0, 20046.0, 20038.0, 20074.0, 20096.0, 20152.0, 20192.0, 20192.0, 20188.0, 20186.0, 20199.0, 20174.0, 20157.0, 20132.0, 20145.0, 20183.0, 20209.0, 20218.0, 20244.0, 20258.0, 20223.0, 20206.0, 20196.0, 20194.0, 20210.0, 20215.0, 20196.0, 20174.0, 20177.0, 20208.0, 20208.0, 20227.0, 20202.0, 20190.0, 20176.0, 20186.0, 20210.0, 20191.0, 20203.0, 20217.0, 20249.0, 20257.0, 20274.0, 20259.0, 20257.0, 20226.0, 20215.0, 20203.0, 20238.0, 20240.0, 20232.0, 20213.0, 20212.0, 20234.0, 20205.0, 20188.0, 20209.0, 20220.0, 20244.0, 20240.0, 20258.0, 20251.0, 20259.0, 20260.0, 20267.0, 20272.0, 20264.0, 20264.0, 20270.0, 20277.0, 20299.0, 20316.0, 20296.0, 20273.0, 20230.0, 20214.0, 20194.0, 20183.0, 20179.0, 20196.0, 20214.0, 20195.0, 20157.0, 20135.0, 20131.0, 20126.0, 20133.0, 20161.0, 20167.0, 20176.0, 20183.0, 20183.0, 20202.0, 20204.0, 20199.0, 20207.0, 20226.0, 20240.0, 20245.0, 20258.0, 20246.0, 20239.0, 20209.0, 20215.0, 20222.0, 20238.0, 20259.0, 20283.0, 20311.0, 20334.0, 20337.0, 20316.0, 20284.0, 20261.0, 20258.0, 20242.0, 20258.0, 20266.0, 20282.0, 20285.0, 20267.0, 20236.0, 20206.0, 20209.0, 20222.0, 20244.0, 20253.0, 20248.0, 20240.0, 20220.0, 20203.0, 20206.0, 20221.0, 20220.0, 20222.0, 20218.0, 20207.0, 20210.0, 20209.0, 20206.0, 20224.0, 20241.0, 20257.0, 20270.0, 20254.0, 20243.0, 20205.0, 20205.0, 20192.0, 20192.0, 20189.0, 20190.0, 20186.0, 20207.0, 20212.0, 20231.0, 20261.0, 20271.0, 20271.0, 20254.0, 20223.0, 20205.0, 20186.0, 20208.0, 20225.0, 20229.0, 20220.0, 20230.0, 20233.0, 20227.0, 20221.0, 20219.0, 20232.0, 20230.0, 20233.0, 20221.0, 20223.0, 20208.0, 20189.0, 20183.0, 20194.0, 20190.0]
    },
    "slices": {}
  },
  "NumberOfVolumes": 192
}