{
  "AcquisitionMatrixPE": 104,
  "AcquisitionNumber": 1,
  "AcquisitionTime": "12:26:9.172500",
  "BandwidthPerPixelPhaseEncode": 16.578,
  "BaseResolution": 104,
  "BodyPartExamined": "BRAIN",
  "ConsistencyInfo": "N4_VE11C_LATEST_20160120",
  "ConversionSoftware": "dcm2niix",
  "ConversionSoftwareVersion": "v1.0.20190902",
  "DerivedVendorReportedEchoSpacing": 0.000580009,
  "DeviceSerialNumber": "166018",
  "DwellTime": 2.1e-06,
  "EchoTime": 0.037,
  "EchoTrainLength": 104,
  "EffectiveEchoSpacing": 0.000580009,
  "FlipAngle": 68,
  "ImageComments": "Unaliased_MB6_PE3_LB",
  "ImageOrientationPatientDICOM": [0.998575, 0.0214317, 0.0488661, -0.00801724, 0.965659, -0.259688],
  "ImageType": [
    "ORIGINAL",
    "PRIMARY",
    "M",
    "MB",
    "ND",
    "MOSAIC"
],
  "ImagingFrequency": 123.191,
  "InPlanePhaseEncodingDirectionDICOM": "COL",
  "InstitutionAddress": "Washington_Place_6_NYC_NYC_US_10003",
  "InstitutionName": "NYU_Center_for_Brain_Imaging",
  "InstitutionalDepartmentName": "Department",
  "MRAcquisitionType": "2D",
  "MagneticFieldStrength": 3,
  "Manufacturer": "Siemens",
  "ManufacturersModelName": "Prisma",
  "Modality": "MR",
  "MultibandAccelerationFactor": 6,
  "PartialFourier": 1,
  "PatientPosition": "HFS",
  "PercentPhaseFOV": 100,
  "PhaseEncodingDirection": "j",
  "PhaseEncodingSteps": 104,
  "PhaseResolution": 1,
  "PixelBandwidth": 2290,
  "ProcedureStepDescription": "Investigators_Winawer",
  "ProtocolName": "cmrr_mbepi_s6_2mm_66sl_PA_task-prf",
  "PulseSequenceDetails": "%CustomerSeq%_cmrr_mbep2d_bold",
  "ReceiveCoilActiveElements": "HC1-7",
  "ReceiveCoilName": "HeadNeck_64",
  "ReconMatrixPE": 104,
  "RepetitionTime": 1,
  "SAR": 0.0589005,
  "ScanOptions": "FS",
  "ScanningSequence": "EP",
  "SequenceName": "epfid2d1_104",
  "SequenceVariant": "SK_SS",
  "SeriesDescription": "cmrr_mbepi_s6_2mm_66sl_PA_task-prf",
  "SeriesNumber": 10,
  "ShimSetting": [257, -12607, -8498, 451, -21, 8, -133, -44],
  "SliceThickness": 2,
  "SliceTiming": [0, 0.535, 0.09, 0.6225, 0.1775, 0.7125, 0.2675, 0.8025, 0.3575, 0.89, 0.445, 0, 0.535, 0.09, 0.6225, 0.1775, 0.7125, 0.2675, 0.8025, 0.3575, 0.89, 0.445, 0, 0.535, 0.09, 0.6225, 0.1775, 0.7125, 0.2675, 0.8025, 0.3575, 0.89, 0.445, 0, 0.535, 0.09, 0.6225, 0.1775, 0.7125, 0.2675, 0.8025, 0.3575, 0.89, 0.445, 0, 0.535, 0.09, 0.6225, 0.1775, 0.7125, 0.2675, 0.8025, 0.3575, 0.89, 0.445, 0, 0.535, 0.09, 0.6225, 0.1775, 0.7125, 0.2675, 0.8025, 0.3575, 0.89, 0.445],
  "SoftwareVersions": "syngo_MR_E11",
  "SpacingBetweenSlices": 2,
  "StationName": "AWP166018",
  "TaskName": "prf",
  "TotalReadoutTime": 0.0597409,
  "TxRefAmp": 203.508,
  "WipMemBlock": "5e02809b-2c01-40d0-8e2f-16f227dc5304||Sequence: R016 ve11c/master r/8780670; Nov 27 2017 15:05:12 by eja",
  "dcmmeta_affine": [
    [-1.9971507787704468, -0.016034480184316635, 0.10550722479820251, 107.01654815673828],
    [-0.04286348447203636, 1.9313186407089233, -0.5178521871566772, -67.95065307617188],
    [0.0977322980761528, 0.5193756818771362, 1.9289108514785767, -81.57173919677734],
    [0.0, 0.0, 0.0, 1.0]
],
  "dcmmeta_reorient_transform": [
    [0.0, -1.0, 0.0, 103.0],
    [1.0, 0.0, 0.0, 0.0],
    [0.0, 0.0, 1.0, 0.0],
    [0.0, 0.0, 0.0, 1.0]
],
  "dcmmeta_shape": [104, 104, 66, 192],
  "dcmmeta_slice_dim": 2,
  "dcmmeta_version": 0.6,
  "global": {
    "const": {
      "AccessionNumber": "jpvhv9d1",
      "AcquisitionMatrix": [104, 0, 0, 104],
      "AngioFlag": "N",
      "BitsAllocated": 16,
      "BitsStored": 16,
      "BodyPartExamined": "BRAIN",
      "Columns": 936,
      "EchoNumbers": 1,
      "EchoTime": 37.0,
      "EchoTrainLength": 104,
      "FlipAngle": 68.0,
      "HighBit": 15,
      "ImageOrientationPatient": [0.99857537523322, 0.02143174273425, 0.04886614759947, -0.0080172399129, 0.96565933540112, -0.2596878353271],
      "ImagePositionPatient": [-929.50936805185, -952.23494665973, 147.327600537],
      "ImageType": [
        "ORIGINAL",
        "PRIMARY",
        "M",
        "MB",
        "ND",
        "MOSAIC"
],
      "ImagedNucleus": "1H",
      "ImagingFrequency": 123.190848,
      "InPlanePhaseEncodingDirection": "COL",
      "MRAcquisitionType": "2D",
      "MagneticFieldStrength": 3.0,
      "Manufacturer": "SIEMENS",
      "ManufacturerModelName": "Prisma",
      "Modality": "MR",
      "NumberOfAverages": 1.0,
      "NumberOfPhaseEncodingSteps": 104,
      "PercentPhaseFieldOfView": 100.0,
      "PercentSampling": 100.0,
      "PerformedProcedureStepStartTime": "120926.853000",
      "PhotometricInterpretation": "MONOCHROME2",
      "PixelBandwidth": 2290.0,
      "PixelRepresentation": 0,
      "PixelSpacing": [2.0, 2.0],
      "ProtocolName": "cmrr_mbepi_s6_2mm_66sl_PA_task-prf",
      "RepetitionTime": 1000.0,
      "Rows": 936,
      "SAR": 0.05890051524164,
      "SamplesPerPixel": 1,
      "ScanOptions": "FS",
      "ScanningSequence": "EP",
      "SequenceName": "epfid2d1_104",
      "SequenceVariant": [
        "SK",
        "SS"
],
      "SeriesDescription": "cmrr_mbepi_s6_2mm_66sl_PA_task-prf",
      "SeriesNumber": 10,
      "SeriesTime": "122735.507000",
      "SliceLocation": -55.432599595336,
      "SliceThickness": 2.0,
      "SmallestImagePixelValue": 0,
      "SoftwareVersions": "syngo MR E11",
      "SpacingBetweenSlices": 1.9999999695103,
      "SpecificCharacterSet": "ISO_IR 100",
      "StudyID": "1",
      "StudyTime": "120926.714000",
      "TransmitCoilName": "Body",
      "VariableFlipAngleFlag": "N",
      "WindowCenterWidthExplanation": "Algo1",
      "dBdt": 0.0},
    "slices": {}
  },
  "time": {
    "samples": {
      "AcquisitionNumber": [1, 2, 3, 4, 5, 6, 7, 8, 9, 10, 11, 12, 13, 14, 15, 16, 17, 18, 19, 20, 21, 22, 23, 24, 25, 26, 27, 28, 29, 30, 31, 32, 33, 34, 35, 36, 37, 38, 39, 40, 41, 42, 43, 44, 45, 46, 47, 48, 49, 50, 51, 52, 53, 54, 55, 56, 57, 58, 59, 60, 61, 62, 63, 64, 65, 66, 67, 68, 69, 70, 71, 72, 73, 74, 75, 76, 77, 78, 79, 80, 81, 82, 83, 84, 85, 86, 87, 88, 89, 90, 91, 92, 93, 94, 95, 96, 97, 98, 99, 100, 101, 102, 103, 104, 105, 106, 107, 108, 109, 110, 111, 112, 113, 114, 115, 116, 117, 118, 119, 120, 121, 122, 123, 124, 125, 126, 127, 128, 129, 130, 131, 132, 133, 134, 135, 136, 137, 138, 139, 140, 141, 142, 143, 144, 145, 146, 147, 148, 149, 150, 151, 152, 153, 154, 155, 156, 157, 158, 159, 160, 161, 162, 163, 164, 165, 166, 167, 168, 169, 170, 171, 172, 173, 174, 175, 176, 177, 178, 179, 180, 181, 182, 183, 184, 185, 186, 187, 188, 189, 190, 191, 192],
      "AcquisitionTime": ["122609.172500", "122610.172500", "122611.172500", "122612.172500", "122613.172500", "122614.172500", "122615.172500", "122616.172500", "122617.172500", "122618.172500", "122619.172500", "122620.172500", "122621.172500", "122622.172500", "122623.172500", "122624.172500", "122625.172500", "122626.172500", "122627.172500", "122628.172500", "122629.172500", "122630.172500", "122631.172500", "122632.172500", "122633.172500", "122634.172500", "122635.172500", "122636.172500", "122637.172500", "122638.172500", "122639.172500", "122640.172500", "122641.172500", "122642.172500", "122643.172500", "122644.172500", "122645.172500", "122646.172500", "122647.172500", "122648.172500", "122649.172500", "122650.172500", "122651.172500", "122652.172500", "122653.172500", "122654.172500", "122655.172500", "122656.172500", "122657.172500", "122658.172500", "122659.172500", "122700.172500", "122701.172500", "122702.172500", "122703.172500", "122704.172500", "122705.172500", "122706.172500", "122707.172500", "122708.172500", "122709.172500", "122710.172500", "122711.172500", "122712.172500", "122713.172500", "122714.172500", "122715.172500", "122716.172500", "122717.172500", "122718.172500", "122719.172500", "122720.172500", "122721.172500", "122722.172500", "122723.172500", "122724.172500", "122725.172500", "122726.172500", "122727.172500", "122728.172500", "122729.172500", "122730.172500", "122731.172500", "122732.172500", "122733.172500", "122734.172500", "122735.172500", "122736.172500", "122737.172500", "122738.172500", "122739.172500", "122740.172500", "122741.172500", "122742.172500", "122743.172500", "122744.172500", "122745.172500", "122746.172500", "122747.172500", "122748.172500", "122749.172500", "122750.172500", "122751.172500", "122752.172500", "122753.172500", "122754.172500", "122755.172500", "122756.172500", "122757.172500", "122758.172500", "122759.172500", "122800.172500", "122801.172500", "122802.172500", "122803.172500", "122804.172500", "122805.172500", "122806.172500", "122807.172500", "122808.172500", "122809.172500", "122810.172500", "122811.172500", "122812.172500", "122813.172500", "122814.172500", "122815.172500", "122816.172500", "122817.172500", "122818.172500", "122819.172500", "122820.172500", "122821.172500", "122822.172500", "122823.172500", "122824.172500", "122825.172500", "122826.172500", "122827.172500", "122828.172500", "122829.172500", "122830.172500", "122831.172500", "122832.172500", "122833.172500", "122834.172500", "122835.172500", "122836.172500", "122837.172500", "122838.172500", "122839.172500", "122840.172500", "122841.172500", "122842.172500", "122843.172500", "122844.172500", "122845.172500", "122846.172500", "122847.172500", "122848.172500", "122849.172500", "122850.172500", "122851.172500", "122852.172500", "122853.172500", "122854.172500", "122855.172500", "122856.172500", "122857.172500", "122858.172500", "122859.172500", "122900.172500", "122901.172500", "122902.172500", "122903.172500", "122904.172500", "122905.172500", "122906.172500", "122907.172500", "122908.172500", "122909.172500", "122910.172500", "122911.172500", "122912.172500", "122913.172500", "122914.172500", "122915.172500", "122916.172500", "122917.172500", "122918.172500", "122919.172500", "122920.172500"],
      "ContentTime": ["122735.510000", "122735.514000", "122735.516000", "122735.519000", "122735.522000", "122735.525000", "122735.528000", "122735.537000", "122735.539000", "122735.542000", "122735.545000", "122735.548000", "122735.551000", "122735.554000", "122735.557000", "122735.560000", "122735.563000", "122735.565000", "122735.568000", "122735.571000", "122735.574000", "122735.577000", "122735.580000", "122735.583000", "122735.586000", "122735.588000", "122735.591000", "122735.594000", "122735.597000", "122735.600000", "122735.608000", "122735.611000", "122735.614000", "122735.617000", "122735.620000", "122735.623000", "122735.626000", "122735.629000", "122735.632000", "122735.634000", "122735.637000", "122735.640000", "122735.643000", "122735.646000", "122755.480000", "122755.483000", "122755.486000", "122755.489000", "122755.495000", "122755.497000", "122755.500000", "122755.503000", "122755.506000", "122755.509000", "122755.512000", "122755.515000", "122755.518000", "122755.521000", "122755.523000", "122755.544000", "122755.547000", "122755.550000", "122755.552000", "122755.555000", "122755.558000", "122755.561000", "122755.564000", "122755.567000", "122755.570000", "122755.573000", "122755.575000", "122755.578000", "122815.480000", "122815.483000", "122815.486000", "122815.489000", "122815.492000", "122815.495000", "122815.497000", "122815.500000", "122815.503000", "122815.506000", "122815.509000", "122815.512000", "122815.515000", "122815.518000", "122815.520000", "122815.523000", "122815.526000", "122815.529000", "122815.532000", "122815.535000", "122815.538000", "122815.540000", "122815.543000", "122815.546000", "122815.549000", "122815.552000", "122815.555000", "122815.558000", "122835.479000", "122835.482000", "122835.485000", "122835.488000", "122835.490000", "122835.493000", "122835.496000", "122835.499000", "122835.502000", "122835.505000", "122835.508000", "122835.511000", "122835.513000", "122835.516000", "122835.519000", "122835.522000", "122835.525000", "122835.528000", "122835.531000", "122835.534000", "122835.537000", "122835.540000", "122835.543000", "122835.546000", "122835.548000", "122835.572000", "122835.574000", "122835.577000", "122855.479000", "122855.482000", "122855.485000", "122855.488000", "122855.491000", "122855.493000", "122855.496000", "122855.499000", "122855.502000", "122855.505000", "122855.508000", "122855.511000", "122855.514000", "122855.516000", "122855.519000", "122855.522000", "122855.525000", "122855.528000", "122855.531000", "122855.534000", "122855.537000", "122855.539000", "122855.542000", "122855.545000", "122855.548000", "122855.551000", "122855.554000", "122855.557000", "122855.559000", "122915.480000", "122915.483000", "122915.486000", "122915.489000", "122915.492000", "122915.495000", "122915.498000", "122915.501000", "122915.503000", "122915.506000", "122915.509000", "122915.512000", "122915.515000", "122915.518000", "122915.521000", "122915.524000", "122915.527000", "122915.529000", "122915.532000", "122915.535000", "122915.538000", "122915.541000", "122915.544000", "122915.547000", "122915.550000", "122915.552000", "122915.555000", "122915.558000", "122921.555000", "122921.558000", "122921.561000", "122921.564000", "122921.567000", "122921.570000", "122921.573000"],
      "InstanceCreationTime": ["122735.510000", "122735.514000", "122735.516000", "122735.519000", "122735.522000", "122735.525000", "122735.528000", "122735.537000", "122735.539000", "122735.542000", "122735.545000", "122735.548000", "122735.551000", "122735.554000", "122735.557000", "122735.560000", "122735.563000", "122735.565000", "122735.568000", "122735.571000", "122735.574000", "122735.577000", "122735.580000", "122735.583000", "122735.586000", "122735.588000", "122735.591000", "122735.594000", "122735.597000", "122735.600000", "122735.608000", "122735.611000", "122735.614000", "122735.617000", "122735.620000", "122735.623000", "122735.626000", "122735.629000", "122735.632000", "122735.634000", "122735.637000", "122735.640000", "122735.643000", "122735.646000", "122755.480000", "122755.483000", "122755.486000", "122755.489000", "122755.495000", "122755.497000", "122755.500000", "122755.503000", "122755.506000", "122755.509000", "122755.512000", "122755.515000", "122755.518000", "122755.521000", "122755.523000", "122755.544000", "122755.547000", "122755.550000", "122755.552000", "122755.555000", "122755.558000", "122755.561000", "122755.564000", "122755.567000", "122755.570000", "122755.573000", "122755.575000", "122755.578000", "122815.480000", "122815.483000", "122815.486000", "122815.489000", "122815.492000", "122815.495000", "122815.497000", "122815.500000", "122815.503000", "122815.506000", "122815.509000", "122815.512000", "122815.515000", "122815.518000", "122815.520000", "122815.523000", "122815.526000", "122815.529000", "122815.532000", "122815.535000", "122815.538000", "122815.540000", "122815.543000", "122815.546000", "122815.549000", "122815.552000", "122815.555000", "122815.558000", "122835.479000", "122835.482000", "122835.485000", "122835.488000", "122835.490000", "122835.493000", "122835.496000", "122835.499000", "122835.502000", "122835.505000", "122835.508000", "122835.511000", "122835.513000", "122835.516000", "122835.519000", "122835.522000", "122835.525000", "122835.528000", "122835.531000", "122835.534000", "122835.537000", "122835.540000", "122835.543000", "122835.546000", "122835.548000", "122835.572000", "122835.574000", "122835.577000", "122855.479000", "122855.482000", "122855.485000", "122855.488000", "122855.491000", "122855.493000", "122855.496000", "122855.499000", "122855.502000", "122855.505000", "122855.508000", "122855.511000", "122855.514000", "122855.516000", "122855.519000", "122855.522000", "122855.525000", "122855.528000", "122855.531000", "122855.534000", "122855.537000", "122855.539000", "122855.542000", "122855.545000", "122855.548000", "122855.551000", "122855.554000", "122855.557000", "122855.559000", "122915.480000", "122915.483000", "122915.486000", "122915.489000", "122915.492000", "122915.495000", "122915.498000", "122915.501000", "122915.503000", "122915.506000", "122915.509000", "122915.512000", "122915.515000", "122915.518000", "122915.521000", "122915.524000", "122915.527000", "122915.529000", "122915.532000", "122915.535000", "122915.538000", "122915.541000", "122915.544000", "122915.547000", "122915.550000", "122915.552000", "122915.555000", "122915.558000", "122921.555000", "122921.558000", "122921.561000", "122921.564000", "122921.567000", "122921.570000", "122921.573000"],
      "InstanceNumber": [1, 2, 3, 4, 5, 6, 7, 8, 9, 10, 11, 12, 13, 14, 15, 16, 17, 18, 19, 20, 21, 22, 23, 24, 25, 26, 27, 28, 29, 30, 31, 32, 33, 34, 35, 36, 37, 38, 39, 40, 41, 42, 43, 44, 45, 46, 47, 48, 49, 50, 51, 52, 53, 54, 55, 56, 57, 58, 59, 60, 61, 62, 63, 64, 65, 66, 67, 68, 69, 70, 71, 72, 73, 74, 75, 76, 77, 78, 79, 80, 81, 82, 83, 84, 85, 86, 87, 88, 89, 90, 91, 92, 93, 94, 95, 96, 97, 98, 99, 100, 101, 102, 103, 104, 105, 106, 107, 108, 109, 110, 111, 112, 113, 114, 115, 116, 117, 118, 119, 120, 121, 122, 123, 124, 125, 126, 127, 128, 129, 130, 131, 132, 133, 134, 135, 136, 137, 138, 139, 140, 141, 142, 143, 144, 145, 146, 147, 148, 149, 150, 151, 152, 153, 154, 155, 156, 157, 158, 159, 160, 161, 162, 163, 164, 165, 166, 167, 168, 169, 170, 171, 172, 173, 174, 175, 176, 177, 178, 179, 180, 181, 182, 183, 184, 185, 186, 187, 188, 189, 190, 191, 192],
      "LargestImagePixelValue": [29869, 29949, 29685, 29772, 30076, 30055, 30006, 30608, 30174, 29832, 30028, 29911, 29985, 30463, 30823, 30899, 30925, 30551, 30701, 30720, 30599, 30552, 31324, 30532, 30848, 30906, 30258, 30452, 30144, 30673, 30605, 30858, 30672, 30858, 31065, 30536, 30339, 30273, 29860, 29785, 30001, 30140, 30208, 29851, 29666, 30137, 30188, 30292, 30209, 30256, 30072, 30190, 30207, 29978, 29928, 30356, 30158, 30085, 30120, 30011, 29969, 29962, 29845, 29891, 30076, 30213, 30625, 29929, 29960, 30256, 31119, 31104, 30976, 30958, 30825, 30216, 30036, 30181, 30134, 30586, 30352, 30454, 30777, 30749, 30684, 30171, 30637, 30391, 30282, 30732, 31166, 31207, 30814, 30365, 30163, 29888, 30283, 29892, 30197, 30681, 30924, 31068, 31438, 31360, 31634, 31994, 31877, 31224, 31295, 30707, 30382, 31067, 30594, 30472, 29775, 29701, 29749, 29668, 29691, 29668, 29276, 29664, 29636, 29730, 29546, 30177, 29774, 30182, 29796, 30095, 30021, 30077, 29860, 29722, 29612, 29570, 29725, 29634, 29752, 30206, 30097, 30117, 30038, 29872, 29745, 29793, 30060, 30337, 30152, 30329, 30501, 31251, 30908, 30966, 30919, 30551, 30121, 29667, 29374, 29286, 29256, 29223, 29866, 29415, 29762, 29607, 29332, 29800, 29763, 29936, 29970, 30307, 30230, 30176, 30135, 30186, 30021, 29801, 29784, 29640, 29904, 29408, 29580, 29978, 29729, 29549, 30285, 30050, 29693, 29536, 30086, 30005],
      "WindowCenter": [9539.0, 9510.0, 9491.0, 9490.0, 9488.0, 9478.0, 9478.0, 9489.0, 9477.0, 9478.0, 9476.0, 9469.0, 9483.0, 9492.0, 9499.0, 9514.0, 9528.0, 9517.0, 9510.0, 9509.0, 9514.0, 9508.0, 9512.0, 9501.0, 9498.0, 9501.0, 9482.0, 9484.0, 9484.0, 9506.0, 9520.0, 9522.0, 9522.0, 9524.0, 9526.0, 9516.0, 9515.0, 9516.0, 9504.0, 9512.0, 9511.0, 9512.0, 9504.0, 9498.0, 9497.0, 9508.0, 9520.0, 9535.0, 9530.0, 9529.0, 9527.0, 9529.0, 9531.0, 9524.0, 9522.0, 9520.0, 9510.0, 9497.0, 9493.0, 9493.0, 9509.0, 9510.0, 9508.0, 9513.0, 9514.0, 9514.0, 9516.0, 9491.0, 9495.0, 9508.0, 9522.0, 9521.0, 9522.0, 9514.0, 9507.0, 9494.0, 9495.0, 9494.0, 9495.0, 9499.0, 9501.0, 9501.0, 9508.0, 9515.0, 9524.0, 9520.0, 9548.0, 9551.0, 9551.0, 9543.0, 9540.0, 9535.0, 9523.0, 9508.0, 9502.0, 9502.0, 9507.0, 9503.0, 9516.0, 9535.0, 9543.0, 9538.0, 9544.0, 9544.0, 9546.0, 9552.0, 9560.0, 9553.0, 9548.0, 9541.0, 9537.0, 9537.0, 9514.0, 9516.0, 9497.0, 9495.0, 9486.0, 9478.0, 9479.0, 9487.0, 9482.0, 9495.0, 9489.0, 9488.0, 9480.0, 9487.0, 9487.0, 9500.0, 9512.0, 9528.0, 9527.0, 9521.0, 9514.0, 9505.0, 9497.0, 9490.0, 9494.0, 9495.0, 9504.0, 9511.0, 9518.0, 9517.0, 9511.0, 9503.0, 9495.0, 9486.0, 9493.0, 9499.0, 9493.0, 9499.0, 9503.0, 9520.0, 9516.0, 9521.0, 9523.0, 9511.0, 9505.0, 9498.0, 9500.0, 9500.0, 9493.0, 9486.0, 9492.0, 9499.0, 9504.0, 9504.0, 9491.0, 9496.0, 9487.0, 9486.0, 9494.0, 9508.0, 9511.0, 9519.0, 9533.0, 9529.0, 9528.0, 9516.0, 9520.0, 9514.0, 9513.0, 9507.0, 9501.0, 9518.0, 9515.0, 9508.0, 9510.0, 9502.0, 9496.0, 9496.0, 9512.0, 9526.0],
      "WindowWidth": [20311.0, 20237.0, 20191.0, 20188.0, 20181.0, 20159.0, 20156.0, 20178.0, 20157.0, 20158.0, 20149.0, 20136.0, 20166.0, 20184.0, 20203.0, 20232.0, 20264.0, 20245.0, 20230.0, 20224.0, 20234.0, 20222.0, 20228.0, 20207.0, 20196.0, 20198.0, 20161.0, 20170.0, 20173.0, 20219.0, 20246.0, 20254.0, 20253.0, 20259.0, 20257.0, 20239.0, 20237.0, 20240.0, 20219.0, 20234.0, 20234.0, 20238.0, 20219.0, 20206.0, 20204.0, 20230.0, 20251.0, 20283.0, 20275.0, 20269.0, 20266.0, 20269.0, 20273.0, 20262.0, 20252.0, 20247.0, 20226.0, 20197.0, 20186.0, 20189.0, 20223.0, 20227.0, 20227.0, 20235.0, 20239.0, 20240.0, 20239.0, 20190.0, 20196.0, 20224.0, 20251.0, 20245.0, 20249.0, 20231.0, 20217.0, 20191.0, 20191.0, 20188.0, 20195.0, 20199.0, 20204.0, 20205.0, 20223.0, 20238.0, 20256.0, 20254.0, 20313.0, 20320.0, 20319.0, 20300.0, 20290.0, 20273.0, 20247.0, 20217.0, 20207.0, 20207.0, 20215.0, 20210.0, 20237.0, 20273.0, 20291.0, 20282.0, 20295.0, 20296.0, 20301.0, 20316.0, 20334.0, 20320.0, 20311.0, 20295.0, 20292.0, 20285.0, 20233.0, 20237.0, 20201.0, 20194.0, 20174.0, 20157.0, 20161.0, 20179.0, 20173.0, 20198.0, 20182.0, 20180.0, 20164.0, 20177.0, 20181.0, 20207.0, 20237.0, 20269.0, 20266.0, 20253.0, 20238.0, 20220.0, 20203.0, 20189.0, 20195.0, 20198.0, 20219.0, 20232.0, 20242.0, 20241.0, 20230.0, 20211.0, 20193.0, 20174.0, 20190.0, 20200.0, 20190.0, 20200.0, 20210.0, 20243.0, 20238.0, 20247.0, 20254.0, 20231.0, 20220.0, 20205.0, 20213.0, 20214.0, 20198.0, 20184.0, 20194.0, 20208.0, 20218.0, 20217.0, 20192.0, 20195.0, 20176.0, 20172.0, 20191.0, 20220.0, 20231.0, 20250.0, 20277.0, 20271.0, 20268.0, 20244.0, 20250.0, 20240.0, 20236.0, 20226.0, 20214.0, 20248.0, 20244.0, 20229.0, 20228.0, 20210.0, 20196.0, 20195.0, 20231.0, 20260.0]
    },
    "slices": {}
  },
  "NumberOfVolumes": 192
}