{
  "aor": 0.00063796875,
  "aqi": 0.009384131041666667,
  "bids_meta": {
    "AcquisitionMatrixPE": 104,
    "AcquisitionNumber": 1,
    "AcquisitionTime": "17:11:0.527500",
    "BandwidthPerPixelPhaseEncode": 16.578,
    "BaseResolution": 104,
    "BodyPartExamined": "BRAIN",
    "CogAtlasID": "TODO",
    "ConsistencyInfo": "N4_VE11C_LATEST_20160120",
    "ConversionSoftware": "dcm2niix",
    "ConversionSoftwareVersion": "v1.0.20190902",
    "DerivedVendorReportedEchoSpacing": 0.000580009,
    "DeviceSerialNumber": "166018",
    "DwellTime": 2.1e-06,
    "EchoTime": 0.037,
    "EchoTrainLength": 104,
    "EffectiveEchoSpacing": 0.000580009,
    "FlipAngle": 68,
    "ImageComments": "Unaliased_MB6_PE3_LB",
    "ImageOrientationPatientDICOM": [
      0.997542,
      -0.0458307,
      0.0529967,
      0.0571685,
      0.969709,
      -0.237478
    ],
    "ImageType": [
      "ORIGINAL",
      "PRIMARY",
      "M",
      "MB",
      "ND",
      "MOSAIC"
    ],
    "ImagingFrequency": 123.191,
    "InPlanePhaseEncodingDirectionDICOM": "COL",
    "InstitutionAddress": "Washington_Place_6_NYC_NYC_US_10003",
    "InstitutionName": "NYU_-_CBI",
    "InstitutionalDepartmentName": "Department",
    "MRAcquisitionType": "2D",
    "MagneticFieldStrength": 3,
    "Manufacturer": "Siemens",
    "ManufacturersModelName": "Prisma",
    "Modality": "MR",
    "MultibandAccelerationFactor": 6,
    "NumberOfVolumes": 192,
    "PartialFourier": 1,
    "PatientPosition": "HFS",
    "PercentPhaseFOV": 100,
    "PhaseEncodingDirection": "j",
    "PhaseEncodingSteps": 104,
    "PhaseResolution": 1,
    "PixelBandwidth": 2290,
    "ProcedureStepDescription": "Investigators_Winawer",
    "ProtocolName": "cmrr_mbepi_s6_2mm_66sl_PA_TR1.0",
    "PulseSequenceDetails": "%CustomerSeq%_cmrr_mbep2d_bold",
    "ReceiveCoilActiveElements": "HC1-7",
    "ReceiveCoilName": "HeadNeck_64",
    "ReconMatrixPE": 104,
    "RepetitionTime": 1,
    "SAR": 0.0800726,
    "ScanOptions": "FS",
    "ScanningSequence": "EP",
    "SequenceName": "epfid2d1_104",
    "SequenceVariant": "SK_SS",
    "SeriesDescription": "cmrr_mbepi_s6_2mm_66sl_PA_TR1.0",
    "SeriesNumber": 22,
    "ShimSetting": [
      253,
      -12564,
      -8485,
      467,
      -12,
      -184,
      -35,
      8
    ],
    "SliceThickness": 2,
    "SliceTiming": [
      0,
      0.535,
      0.09,
      0.625,
      0.1775,
      0.7125,
      0.2675,
      0.8025,
      0.3575,
      0.89,
      0.445,
      0,
      0.535,
      0.09,
      0.625,
      0.1775,
      0.7125,
      0.2675,
      0.8025,
      0.3575,
      0.89,
      0.445,
      0,
      0.535,
      0.09,
      0.625,
      0.1775,
      0.7125,
      0.2675,
      0.8025,
      0.3575,
      0.89,
      0.445,
      0,
      0.535,
      0.09,
      0.625,
      0.1775,
      0.7125,
      0.2675,
      0.8025,
      0.3575,
      0.89,
      0.445,
      0,
      0.535,
      0.09,
      0.625,
      0.1775,
      0.7125,
      0.2675,
      0.8025,
      0.3575,
      0.89,
      0.445,
      0,
      0.535,
      0.09,
      0.625,
      0.1775,
      0.7125,
      0.2675,
      0.8025,
      0.3575,
      0.89,
      0.445
    ],
    "SoftwareVersions": "syngo_MR_E11",
    "SpacingBetweenSlices": 2,
    "StationName": "AWP166018",
    "TaskName": "prf",
    "TotalReadoutTime": 0.0597409,
    "TxRefAmp": 250.804,
    "WipMemBlock": "ee634ab6-942a-4b10-b12b-f84276b4ac44||Sequence: ve11c/master r/ab69a6c; Apr 19 2017 09:47:47 by eja",
    "acq_id": "PA",
    "dataset": "unknown",
    "dcmmeta_affine": [
      [
        -1.9950848817825317,
        0.1143370270729065,
        0.08101527392864227,
        105.4575424194336
      ],
      [
        0.0916614681482315,
        1.9394186735153198,
        -0.4798473119735718,
        -70.46788787841797
      ],
      [
        0.10599342733621597,
        0.4749550521373749,
        1.9398925304412842,
        -82.23838806152344
      ],
      [
        0.0,
        0.0,
        0.0,
        1.0
      ]
    ],
    "dcmmeta_reorient_transform": [
      [
        0.0,
        -1.0,
        0.0,
        103.0
      ],
      [
        1.0,
        0.0,
        0.0,
        0.0
      ],
      [
        0.0,
        0.0,
        1.0,
        0.0
      ],
      [
        0.0,
        0.0,
        0.0,
        1.0
      ]
    ],
    "dcmmeta_shape": [
      104,
      104,
      66,
      192
    ],
    "dcmmeta_slice_dim": 2,
    "dcmmeta_version": 0.6,
    "global": {
      "const": {
        "AccessionNumber": "j6wfq5gm",
        "AcquisitionMatrix": [
          104,
          0,
          0,
          104
        ],
        "AngioFlag": "N",
        "BitsAllocated": 16,
        "BitsStored": 16,
        "BodyPartExamined": "BRAIN",
        "Columns": 936,
        "EchoNumbers": 1,
        "EchoTime": 37.0,
        "EchoTrainLength": 104,
        "FlipAngle": 68.0,
        "HighBit": 15,
        "ImageOrientationPatient": [
          0.99754242629366,
          -0.0458307346607,
          0.05299671220584,
          0.05716851489868,
          0.96970933081106,
          -0.2374775244991
        ],
        "ImagePositionPatient": [
          -994.75375629416,
          -897.95922448674,
          120.17001961562
        ],
        "ImageType": [
          "ORIGINAL",
          "PRIMARY",
          "M",
          "MB",
          "ND",
          "MOSAIC"
        ],
        "ImagedNucleus": "1H",
        "ImagingFrequency": 123.19134,
        "InPlanePhaseEncodingDirection": "COL",
        "MRAcquisitionType": "2D",
        "MagneticFieldStrength": 3.0,
        "Manufacturer": "SIEMENS",
        "ManufacturerModelName": "Prisma",
        "Modality": "MR",
        "NumberOfAverages": 1.0,
        "NumberOfPhaseEncodingSteps": 104,
        "PercentPhaseFieldOfView": 100.0,
        "PercentSampling": 100.0,
        "PerformedProcedureStepStartTime": "164024.304000",
        "PhotometricInterpretation": "MONOCHROME2",
        "PixelBandwidth": 2290.0,
        "PixelRepresentation": 0,
        "PixelSpacing": [
          2.0,
          2.0
        ],
        "ProtocolName": "cmrr_mbepi_s6_2mm_66sl_PA_TR1.0",
        "RepetitionTime": 1000.0,
        "Rows": 936,
        "SAR": 0.08007259547669,
        "SamplesPerPixel": 1,
        "ScanOptions": "FS",
        "ScanningSequence": "EP",
        "SequenceName": "epfid2d1_104",
        "SequenceVariant": [
          "SK",
          "SS"
        ],
        "SeriesDescription": "cmrr_mbepi_s6_2mm_66sl_PA_TR1.0",
        "SeriesNumber": 22,
        "SeriesTime": "171218.478000",
        "SliceLocation": -58.588067354977,
        "SliceThickness": 2.0,
        "SmallestImagePixelValue": 0,
        "SoftwareVersions": "syngo MR E11",
        "SpacingBetweenSlices": 2.0000000254267,
        "SpecificCharacterSet": "ISO_IR 100",
        "StudyID": "1",
        "StudyTime": "164024.247000",
        "TransmitCoilName": "Body",
        "VariableFlipAngleFlag": "N",
        "WindowCenterWidthExplanation": "Algo1",
        "dBdt": 0.0
      },
      "slices": {}
    },
    "modality": "bold",
    "run_id": 8,
    "session_id": "nyu3t01",
    "subject_id": "wlsubj004",
    "task_id": "prf",
    "time": {
      "samples": {
        "AcquisitionNumber": [
          1,
          2,
          3,
          4,
          5,
          6,
          7,
          8,
          9,
          10,
          11,
          12,
          13,
          14,
          15,
          16,
          17,
          18,
          19,
          20,
          21,
          22,
          23,
          24,
          25,
          26,
          27,
          28,
          29,
          30,
          31,
          32,
          33,
          34,
          35,
          36,
          37,
          38,
          39,
          40,
          41,
          42,
          43,
          44,
          45,
          46,
          47,
          48,
          49,
          50,
          51,
          52,
          53,
          54,
          55,
          56,
          57,
          58,
          59,
          60,
          61,
          62,
          63,
          64,
          65,
          66,
          67,
          68,
          69,
          70,
          71,
          72,
          73,
          74,
          75,
          76,
          77,
          78,
          79,
          80,
          81,
          82,
          83,
          84,
          85,
          86,
          87,
          88,
          89,
          90,
          91,
          92,
          93,
          94,
          95,
          96,
          97,
          98,
          99,
          100,
          101,
          102,
          103,
          104,
          105,
          106,
          107,
          108,
          109,
          110,
          111,
          112,
          113,
          114,
          115,
          116,
          117,
          118,
          119,
          120,
          121,
          122,
          123,
          124,
          125,
          126,
          127,
          128,
          129,
          130,
          131,
          132,
          133,
          134,
          135,
          136,
          137,
          138,
          139,
          140,
          141,
          142,
          143,
          144,
          145,
          146,
          147,
          148,
          149,
          150,
          151,
          152,
          153,
          154,
          155,
          156,
          157,
          158,
          159,
          160,
          161,
          162,
          163,
          164,
          165,
          166,
          167,
          168,
          169,
          170,
          171,
          172,
          173,
          174,
          175,
          176,
          177,
          178,
          179,
          180,
          181,
          182,
          183,
          184,
          185,
          186,
          187,
          188,
          189,
          190,
          191,
          192
        ],
        "AcquisitionTime": [
          "171100.527500",
          "171101.527500",
          "171102.527500",
          "171103.527500",
          "171104.527500",
          "171105.527500",
          "171106.527500",
          "171107.527500",
          "171108.527500",
          "171109.527500",
          "171110.527500",
          "171111.527500",
          "171112.527500",
          "171113.527500",
          "171114.527500",
          "171115.527500",
          "171116.527500",
          "171117.527500",
          "171118.527500",
          "171119.527500",
          "171120.527500",
          "171121.527500",
          "171122.527500",
          "171123.527500",
          "171124.527500",
          "171125.527500",
          "171126.527500",
          "171127.527500",
          "171128.527500",
          "171129.527500",
          "171130.527500",
          "171131.527500",
          "171132.527500",
          "171133.527500",
          "171134.527500",
          "171135.527500",
          "171136.527500",
          "171137.527500",
          "171138.527500",
          "171139.527500",
          "171140.527500",
          "171141.527500",
          "171142.527500",
          "171143.527500",
          "171144.527500",
          "171145.527500",
          "171146.527500",
          "171147.527500",
          "171148.527500",
          "171149.527500",
          "171150.527500",
          "171151.527500",
          "171152.527500",
          "171153.527500",
          "171154.527500",
          "171155.527500",
          "171156.527500",
          "171157.527500",
          "171158.527500",
          "171159.527500",
          "171200.527500",
          "171201.527500",
          "171202.527500",
          "171203.527500",
          "171204.527500",
          "171205.527500",
          "171206.527500",
          "171207.527500",
          "171208.527500",
          "171209.527500",
          "171210.527500",
          "171211.527500",
          "171212.527500",
          "171213.527500",
          "171214.527500",
          "171215.527500",
          "171216.527500",
          "171217.527500",
          "171218.527500",
          "171219.527500",
          "171220.527500",
          "171221.527500",
          "171222.527500",
          "171223.527500",
          "171224.527500",
          "171225.527500",
          "171226.527500",
          "171227.527500",
          "171228.527500",
          "171229.527500",
          "171230.527500",
          "171231.527500",
          "171232.527500",
          "171233.527500",
          "171234.527500",
          "171235.527500",
          "171236.527500",
          "171237.527500",
          "171238.527500",
          "171239.527500",
          "171240.527500",
          "171241.527500",
          "171242.527500",
          "171243.527500",
          "171244.527500",
          "171245.527500",
          "171246.527500",
          "171247.527500",
          "171248.527500",
          "171249.527500",
          "171250.527500",
          "171251.527500",
          "171252.527500",
          "171253.527500",
          "171254.527500",
          "171255.527500",
          "171256.527500",
          "171257.527500",
          "171258.527500",
          "171259.527500",
          "171300.527500",
          "171301.527500",
          "171302.527500",
          "171303.527500",
          "171304.527500",
          "171305.527500",
          "171306.527500",
          "171307.527500",
          "171308.527500",
          "171309.527500",
          "171310.527500",
          "171311.527500",
          "171312.527500",
          "171313.527500",
          "171314.527500",
          "171315.527500",
          "171316.527500",
          "171317.527500",
          "171318.527500",
          "171319.527500",
          "171320.527500",
          "171321.527500",
          "171322.527500",
          "171323.527500",
          "171324.527500",
          "171325.527500",
          "171326.527500",
          "171327.527500",
          "171328.527500",
          "171329.527500",
          "171330.527500",
          "171331.527500",
          "171332.527500",
          "171333.527500",
          "171334.527500",
          "171335.527500",
          "171336.527500",
          "171337.527500",
          "171338.527500",
          "171339.527500",
          "171340.527500",
          "171341.527500",
          "171342.527500",
          "171343.527500",
          "171344.527500",
          "171345.527500",
          "171346.527500",
          "171347.527500",
          "171348.527500",
          "171349.527500",
          "171350.527500",
          "171351.527500",
          "171352.527500",
          "171353.527500",
          "171354.527500",
          "171355.527500",
          "171356.527500",
          "171357.527500",
          "171358.527500",
          "171359.527500",
          "171400.527500",
          "171401.527500",
          "171402.527500",
          "171403.527500",
          "171404.527500",
          "171405.527500",
          "171406.527500",
          "171407.527500",
          "171408.527500",
          "171409.527500",
          "171410.527500",
          "171411.527500"
        ],
        "ContentTime": [
          "171218.481000",
          "171218.485000",
          "171218.488000",
          "171218.491000",
          "171218.494000",
          "171218.502000",
          "171218.505000",
          "171218.508000",
          "171218.511000",
          "171218.514000",
          "171218.517000",
          "171218.520000",
          "171218.523000",
          "171218.526000",
          "171218.529000",
          "171218.532000",
          "171218.535000",
          "171218.538000",
          "171218.545000",
          "171218.548000",
          "171218.551000",
          "171218.554000",
          "171218.557000",
          "171218.560000",
          "171218.563000",
          "171218.566000",
          "171218.569000",
          "171218.572000",
          "171218.575000",
          "171218.578000",
          "171218.581000",
          "171218.584000",
          "171218.588000",
          "171218.592000",
          "171218.595000",
          "171218.598000",
          "171218.601000",
          "171218.604000",
          "171218.607000",
          "171218.610000",
          "171218.613000",
          "171238.450000",
          "171238.453000",
          "171238.456000",
          "171238.459000",
          "171238.462000",
          "171238.465000",
          "171238.468000",
          "171238.471000",
          "171238.474000",
          "171238.477000",
          "171238.480000",
          "171238.483000",
          "171238.486000",
          "171238.489000",
          "171238.492000",
          "171238.495000",
          "171238.498000",
          "171238.501000",
          "171238.504000",
          "171238.506000",
          "171238.509000",
          "171238.512000",
          "171238.515000",
          "171238.518000",
          "171238.521000",
          "171238.524000",
          "171238.527000",
          "171238.530000",
          "171258.450000",
          "171258.453000",
          "171258.456000",
          "171258.459000",
          "171258.462000",
          "171258.465000",
          "171258.469000",
          "171258.472000",
          "171258.475000",
          "171258.477000",
          "171258.480000",
          "171258.483000",
          "171258.486000",
          "171258.489000",
          "171258.492000",
          "171258.495000",
          "171258.498000",
          "171258.501000",
          "171258.504000",
          "171258.507000",
          "171258.510000",
          "171258.513000",
          "171258.516000",
          "171258.519000",
          "171258.522000",
          "171258.525000",
          "171258.528000",
          "171258.531000",
          "171318.449000",
          "171318.452000",
          "171318.455000",
          "171318.458000",
          "171318.461000",
          "171318.464000",
          "171318.467000",
          "171318.470000",
          "171318.473000",
          "171318.476000",
          "171318.479000",
          "171318.482000",
          "171318.485000",
          "171318.488000",
          "171318.491000",
          "171318.494000",
          "171318.497000",
          "171318.500000",
          "171318.512000",
          "171318.515000",
          "171318.518000",
          "171318.521000",
          "171318.524000",
          "171318.527000",
          "171318.530000",
          "171318.533000",
          "171318.536000",
          "171318.539000",
          "171318.542000",
          "171338.449000",
          "171338.452000",
          "171338.455000",
          "171338.458000",
          "171338.461000",
          "171338.464000",
          "171338.467000",
          "171338.470000",
          "171338.473000",
          "171338.476000",
          "171338.479000",
          "171338.482000",
          "171338.485000",
          "171338.488000",
          "171338.491000",
          "171338.494000",
          "171338.497000",
          "171338.500000",
          "171338.503000",
          "171338.506000",
          "171338.509000",
          "171338.512000",
          "171338.526000",
          "171338.529000",
          "171338.532000",
          "171338.535000",
          "171338.538000",
          "171338.541000",
          "171358.449000",
          "171358.452000",
          "171358.455000",
          "171358.458000",
          "171358.461000",
          "171358.464000",
          "171358.467000",
          "171358.470000",
          "171358.473000",
          "171358.476000",
          "171358.479000",
          "171358.482000",
          "171358.485000",
          "171358.488000",
          "171358.491000",
          "171358.494000",
          "171358.497000",
          "171358.500000",
          "171358.503000",
          "171358.506000",
          "171358.509000",
          "171358.512000",
          "171358.515000",
          "171412.788000",
          "171412.792000",
          "171412.798000",
          "171412.801000",
          "171412.807000",
          "171412.811000",
          "171412.815000",
          "171412.820000",
          "171412.823000",
          "171412.827000",
          "171412.830000",
          "171412.834000",
          "171412.837000",
          "171412.842000",
          "171412.845000"
        ],
        "InstanceCreationTime": [
          "171218.481000",
          "171218.485000",
          "171218.488000",
          "171218.491000",
          "171218.494000",
          "171218.502000",
          "171218.505000",
          "171218.508000",
          "171218.511000",
          "171218.514000",
          "171218.517000",
          "171218.520000",
          "171218.523000",
          "171218.526000",
          "171218.529000",
          "171218.532000",
          "171218.535000",
          "171218.538000",
          "171218.545000",
          "171218.548000",
          "171218.551000",
          "171218.554000",
          "171218.557000",
          "171218.560000",
          "171218.563000",
          "171218.566000",
          "171218.569000",
          "171218.572000",
          "171218.575000",
          "171218.578000",
          "171218.581000",
          "171218.584000",
          "171218.588000",
          "171218.592000",
          "171218.595000",
          "171218.598000",
          "171218.601000",
          "171218.604000",
          "171218.607000",
          "171218.610000",
          "171218.613000",
          "171238.450000",
          "171238.453000",
          "171238.456000",
          "171238.459000",
          "171238.462000",
          "171238.465000",
          "171238.468000",
          "171238.471000",
          "171238.474000",
          "171238.477000",
          "171238.480000",
          "171238.483000",
          "171238.486000",
          "171238.489000",
          "171238.492000",
          "171238.495000",
          "171238.498000",
          "171238.501000",
          "171238.504000",
          "171238.506000",
          "171238.509000",
          "171238.512000",
          "171238.515000",
          "171238.518000",
          "171238.521000",
          "171238.524000",
          "171238.527000",
          "171238.530000",
          "171258.450000",
          "171258.453000",
          "171258.456000",
          "171258.459000",
          "171258.462000",
          "171258.465000",
          "171258.469000",
          "171258.472000",
          "171258.475000",
          "171258.477000",
          "171258.480000",
          "171258.483000",
          "171258.486000",
          "171258.489000",
          "171258.492000",
          "171258.495000",
          "171258.498000",
          "171258.501000",
          "171258.504000",
          "171258.507000",
          "171258.510000",
          "171258.513000",
          "171258.516000",
          "171258.519000",
          "171258.522000",
          "171258.525000",
          "171258.528000",
          "171258.531000",
          "171318.449000",
          "171318.452000",
          "171318.455000",
          "171318.458000",
          "171318.461000",
          "171318.464000",
          "171318.467000",
          "171318.470000",
          "171318.473000",
          "171318.476000",
          "171318.479000",
          "171318.482000",
          "171318.485000",
          "171318.488000",
          "171318.491000",
          "171318.494000",
          "171318.497000",
          "171318.500000",
          "171318.512000",
          "171318.515000",
          "171318.518000",
          "171318.521000",
          "171318.524000",
          "171318.527000",
          "171318.530000",
          "171318.533000",
          "171318.536000",
          "171318.539000",
          "171318.542000",
          "171338.449000",
          "171338.452000",
          "171338.455000",
          "171338.458000",
          "171338.461000",
          "171338.464000",
          "171338.467000",
          "171338.470000",
          "171338.473000",
          "171338.476000",
          "171338.479000",
          "171338.482000",
          "171338.485000",
          "171338.488000",
          "171338.491000",
          "171338.494000",
          "171338.497000",
          "171338.500000",
          "171338.503000",
          "171338.506000",
          "171338.509000",
          "171338.512000",
          "171338.526000",
          "171338.529000",
          "171338.532000",
          "171338.535000",
          "171338.538000",
          "171338.541000",
          "171358.449000",
          "171358.452000",
          "171358.455000",
          "171358.458000",
          "171358.461000",
          "171358.464000",
          "171358.467000",
          "171358.470000",
          "171358.473000",
          "171358.476000",
          "171358.479000",
          "171358.482000",
          "171358.485000",
          "171358.488000",
          "171358.491000",
          "171358.494000",
          "171358.497000",
          "171358.500000",
          "171358.503000",
          "171358.506000",
          "171358.509000",
          "171358.512000",
          "171358.515000",
          "171412.788000",
          "171412.792000",
          "171412.798000",
          "171412.801000",
          "171412.807000",
          "171412.811000",
          "171412.815000",
          "171412.820000",
          "171412.823000",
          "171412.827000",
          "171412.830000",
          "171412.834000",
          "171412.837000",
          "171412.842000",
          "171412.845000"
        ],
        "InstanceNumber": [
          1,
          2,
          3,
          4,
          5,
          6,
          7,
          8,
          9,
          10,
          11,
          12,
          13,
          14,
          15,
          16,
          17,
          18,
          19,
          20,
          21,
          22,
          23,
          24,
          25,
          26,
          27,
          28,
          29,
          30,
          31,
          32,
          33,
          34,
          35,
          36,
          37,
          38,
          39,
          40,
          41,
          42,
          43,
          44,
          45,
          46,
          47,
          48,
          49,
          50,
          51,
          52,
          53,
          54,
          55,
          56,
          57,
          58,
          59,
          60,
          61,
          62,
          63,
          64,
          65,
          66,
          67,
          68,
          69,
          70,
          71,
          72,
          73,
          74,
          75,
          76,
          77,
          78,
          79,
          80,
          81,
          82,
          83,
          84,
          85,
          86,
          87,
          88,
          89,
          90,
          91,
          92,
          93,
          94,
          95,
          96,
          97,
          98,
          99,
          100,
          101,
          102,
          103,
          104,
          105,
          106,
          107,
          108,
          109,
          110,
          111,
          112,
          113,
          114,
          115,
          116,
          117,
          118,
          119,
          120,
          121,
          122,
          123,
          124,
          125,
          126,
          127,
          128,
          129,
          130,
          131,
          132,
          133,
          134,
          135,
          136,
          137,
          138,
          139,
          140,
          141,
          142,
          143,
          144,
          145,
          146,
          147,
          148,
          149,
          150,
          151,
          152,
          153,
          154,
          155,
          156,
          157,
          158,
          159,
          160,
          161,
          162,
          163,
          164,
          165,
          166,
          167,
          168,
          169,
          170,
          171,
          172,
          173,
          174,
          175,
          176,
          177,
          178,
          179,
          180,
          181,
          182,
          183,
          184,
          185,
          186,
          187,
          188,
          189,
          190,
          191,
          192
        ],
        "LargestImagePixelValue": [
          39654,
          38819,
          38965,
          39343,
          37410,
          32444,
          32713,
          35500,
          33298,
          31782,
          31672,
          36829,
          37085,
          34433,
          33677,
          33662,
          33463,
          34967,
          36504,
          34124,
          36797,
          34478,
          34744,
          34922,
          35164,
          37094,
          37817,
          38297,
          40595,
          43206,
          37201,
          36898,
          34941,
          34368,
          34611,
          34823,
          34026,
          32006,
          34688,
          35568,
          35700,
          39658,
          34603,
          38640,
          35501,
          33429,
          36024,
          36256,
          38353,
          37448,
          35881,
          35929,
          34333,
          35601,
          37391,
          36583,
          33533,
          36181,
          36041,
          35043,
          37542,
          38105,
          37697,
          34901,
          32273,
          36866,
          33351,
          36036,
          34844,
          32321,
          31801,
          31200,
          33927,
          31265,
          31960,
          35793,
          40524,
          38755,
          34898,
          36613,
          34022,
          32865,
          32296,
          31605,
          34964,
