{
  "AcquisitionMatrixPE": 104,
  "AcquisitionNumber": 1,
  "AcquisitionTime": "16:17:44.515000",
  "BandwidthPerPixelPhaseEncode": 16.578,
  "BaseResolution": 104,
  "BodyPartExamined": "BRAIN",
  "ConsistencyInfo": "N4_VE11C_LATEST_20160120",
  "ConversionSoftware": "dcm2niix",
  "ConversionSoftwareVersion": "v1.0.20190902",
  "DerivedVendorReportedEchoSpacing": 0.000580009,
  "DeviceSerialNumber": "166018",
  "DwellTime": 2.1e-06,
  "EchoTime": 0.037,
  "EchoTrainLength": 104,
  "EffectiveEchoSpacing": 0.000580009,
  "FlipAngle": 68,
  "ImageComments": "Unaliased_MB6_PE3_LB",
  "ImageOrientationPatientDICOM": [0.998865, 0.0428984, 0.0206747, -0.0425635, 0.99896, -0.0163773],
  "ImageType": [
    "ORIGINAL",
    "PRIMARY",
    "M",
    "MB",
    "ND",
    "MOSAIC"
],
  "ImagingFrequency": 123.191,
  "InPlanePhaseEncodingDirectionDICOM": "COL",
  "InstitutionAddress": "Washington_Place_6_NYC_NYC_US_10003",
  "InstitutionName": "NYU_-_CBI",
  "InstitutionalDepartmentName": "Department",
  "MRAcquisitionType": "2D",
  "MagneticFieldStrength": 3,
  "Manufacturer": "Siemens",
  "ManufacturersModelName": "Prisma",
  "Modality": "MR",
  "MultibandAccelerationFactor": 6,
  "PartialFourier": 1,
  "PatientPosition": "HFS",
  "PercentPhaseFOV": 100,
  "PhaseEncodingDirection": "j",
  "PhaseEncodingSteps": 104,
  "PhaseResolution": 1,
  "PixelBandwidth": 2290,
  "ProcedureStepDescription": "Investigators_Winawer",
  "ProtocolName": "cmrr_mbepi_s6_2mm_66sl_PA_TR1.0",
  "PulseSequenceDetails": "%CustomerSeq%_cmrr_mbep2d_bold",
  "ReceiveCoilActiveElements": "HC1-7",
  "ReceiveCoilName": "HeadNeck_64",
  "ReconMatrixPE": 104,
  "RepetitionTime": 1,
  "SAR": 0.0673717,
  "ScanOptions": "FS",
  "ScanningSequence": "EP",
  "SequenceName": "epfid2d1_104",
  "SequenceVariant": "SK_SS",
  "SeriesDescription": "cmrr_mbepi_s6_2mm_66sl_PA_TR1.0",
  "SeriesNumber": 20,
  "ShimSetting": [277, -12571, -8534, 278, -14, -5, 51, -2],
  "SliceThickness": 2,
  "SliceTiming": [0, 0.5325, 0.0875, 0.6225, 0.1775, 0.7125, 0.2675, 0.8, 0.355, 0.89, 0.445, 0, 0.5325, 0.0875, 0.6225, 0.1775, 0.7125, 0.2675, 0.8, 0.355, 0.89, 0.445, 0, 0.5325, 0.0875, 0.6225, 0.1775, 0.7125, 0.2675, 0.8, 0.355, 0.89, 0.445, 0, 0.5325, 0.0875, 0.6225, 0.1775, 0.7125, 0.2675, 0.8, 0.355, 0.89, 0.445, 0, 0.5325, 0.0875, 0.6225, 0.1775, 0.7125, 0.2675, 0.8, 0.355, 0.89, 0.445, 0, 0.5325, 0.0875, 0.6225, 0.1775, 0.7125, 0.2675, 0.8, 0.355, 0.89, 0.445],
  "SoftwareVersions": "syngo_MR_E11",
  "SpacingBetweenSlices": 2,
  "StationName": "AWP166018",
  "TaskName": "prf",
  "TotalReadoutTime": 0.0597409,
  "TxRefAmp": 205.563,
  "WipMemBlock": "385340f2-c73f-4b73-9b2a-1f11c027380c||Sequence: ve11c/master r/ab69a6c; Apr 19 2017 09:47:47 by eja",
  "dcmmeta_affine": [
    [-1.9977309703826904, -0.08512690663337708, 0.0427115261554718, 111.0504379272461],
    [-0.0857967883348465, 1.9979190826416016, -0.030957387760281563, -83.35585021972656],
    [0.04134942963719368, 0.03275452181696892, 1.999304175376892, -41.87906265258789],
    [0.0, 0.0, 0.0, 1.0]
],
  "dcmmeta_reorient_transform": [
    [0.0, -1.0, 0.0, 103.0],
    [1.0, 0.0, 0.0, 0.0],
    [0.0, 0.0, 1.0, 0.0],
    [0.0, 0.0, 0.0, 1.0]
],
  "dcmmeta_shape": [104, 104, 66, 192],
  "dcmmeta_slice_dim": 2,
  "dcmmeta_version": 0.6,
  "global": {
    "const": {
      "AccessionNumber": "j9yLnzuo",
      "AcquisitionMatrix": [104, 0, 0, 104],
      "AngioFlag": "N",
      "BitsAllocated": 16,
      "BitsStored": 16,
      "BodyPartExamined": "BRAIN",
      "Columns": 936,
      "EchoNumbers": 1,
      "EchoTime": 37.0,
      "EchoTrainLength": 104,
      "FlipAngle": 68.0,
      "HighBit": 15,
      "ImageOrientationPatient": [0.99886549836743, 0.04289839512642, 0.02067471563915, -0.0425634536089, 0.99895952756743, -0.0163772616497],
      "ImagePositionPatient": [-897.92566420561, -989.25560713314, -42.080827578655],
      "ImageType": [
        "ORIGINAL",
        "PRIMARY",
        "M",
        "MB",
        "ND",
        "MOSAIC"
],
      "ImagedNucleus": "1H",
      "ImagingFrequency": 123.191294,
      "InPlanePhaseEncodingDirection": "COL",
      "MRAcquisitionType": "2D",
      "MagneticFieldStrength": 3.0,
      "Manufacturer": "SIEMENS",
      "ManufacturerModelName": "Prisma",
      "Modality": "MR",
      "NumberOfAverages": 1.0,
      "NumberOfPhaseEncodingSteps": 104,
      "PercentPhaseFieldOfView": 100.0,
      "PercentSampling": 100.0,
      "PerformedProcedureStepStartTime": "153632.718000",
      "PhotometricInterpretation": "MONOCHROME2",
      "PixelBandwidth": 2290.0,
      "PixelRepresentation": 0,
      "PixelSpacing": [2.0, 2.0],
      "ProtocolName": "cmrr_mbepi_s6_2mm_66sl_PA_TR1.0",
      "RepetitionTime": 1000.0,
      "Rows": 936,
      "SAR": 0.06737168448902,
      "SamplesPerPixel": 1,
      "ScanOptions": "FS",
      "ScanningSequence": "EP",
      "SequenceName": "epfid2d1_104",
      "SequenceVariant": [
        "SK",
        "SS"
],
      "SeriesDescription": "cmrr_mbepi_s6_2mm_66sl_PA_TR1.0",
      "SeriesNumber": 20,
      "SeriesTime": "161844.571000",
      "SliceLocation": -38.202686089358,
      "SliceThickness": 2.0,
      "SmallestImagePixelValue": 0,
      "SoftwareVersions": "syngo MR E11",
      "SpacingBetweenSlices": 1.9999999787566,
      "SpecificCharacterSet": "ISO_IR 100",
      "StudyID": "1",
      "StudyTime": "153632.662000",
      "TransmitCoilName": "Body",
      "VariableFlipAngleFlag": "N",
      "WindowCenterWidthExplanation": "Algo1",
      "dBdt": 0.0},
    "slices": {}
  },
  "time": {
    "samples": {
      "AcquisitionNumber": [1, 2, 3, 4, 5, 6, 7, 8, 9, 10, 11, 12, 13, 14, 15, 16, 17, 18, 19, 20, 21, 22, 23, 24, 25, 26, 27, 28, 29, 30, 31, 32, 33, 34, 35, 36, 37, 38, 39, 40, 41, 42, 43, 44, 45, 46, 47, 48, 49, 50, 51, 52, 53, 54, 55, 56, 57, 58, 59, 60, 61, 62, 63, 64, 65, 66, 67, 68, 69, 70, 71, 72, 73, 74, 75, 76, 77, 78, 79, 80, 81, 82, 83, 84, 85, 86, 87, 88, 89, 90, 91, 92, 93, 94, 95, 96, 97, 98, 99, 100, 101, 102, 103, 104, 105, 106, 107, 108, 109, 110, 111, 112, 113, 114, 115, 116, 117, 118, 119, 120, 121, 122, 123, 124, 125, 126, 127, 128, 129, 130, 131, 132, 133, 134, 135, 136, 137, 138, 139, 140, 141, 142, 143, 144, 145, 146, 147, 148, 149, 150, 151, 152, 153, 154, 155, 156, 157, 158, 159, 160, 161, 162, 163, 164, 165, 166, 167, 168, 169, 170, 171, 172, 173, 174, 175, 176, 177, 178, 179, 180, 181, 182, 183, 184, 185, 186, 187, 188, 189, 190, 191, 192],
      "AcquisitionTime": ["161744.515000", "161745.515000", "161746.515000", "161747.515000", "161748.515000", "161749.515000", "161750.515000", "161751.515000", "161752.515000", "161753.515000", "161754.515000", "161755.515000", "161756.515000", "161757.515000", "161758.515000", "161759.515000", "161800.515000", "161801.515000", "161802.515000", "161803.515000", "161804.515000", "161805.515000", "161806.515000", "161807.515000", "161808.515000", "161809.515000", "161810.515000", "161811.515000", "161812.515000", "161813.515000", "161814.515000", "161815.515000", "161816.515000", "161817.515000", "161818.515000", "161819.515000", "161820.515000", "161821.515000", "161822.515000", "161823.515000", "161824.515000", "161825.515000", "161826.515000", "161827.515000", "161828.515000", "161829.515000", "161830.515000", "161831.515000", "161832.515000", "161833.515000", "161834.515000", "161835.515000", "161836.515000", "161837.515000", "161838.515000", "161839.515000", "161840.515000", "161841.515000", "161842.515000", "161843.515000", "161844.515000", "161845.515000", "161846.515000", "161847.515000", "161848.515000", "161849.515000", "161850.515000", "161851.515000", "161852.515000", "161853.515000", "161854.515000", "161855.515000", "161856.515000", "161857.515000", "161858.515000", "161859.515000", "161900.515000", "161901.515000", "161902.515000", "161903.515000", "161904.515000", "161905.515000", "161906.515000", "161907.515000", "161908.515000", "161909.515000", "161910.515000", "161911.515000", "161912.515000", "161913.515000", "161914.515000", "161915.515000", "161916.515000", "161917.515000", "161918.515000", "161919.515000", "161920.515000", "161921.515000", "161922.515000", "161923.515000", "161924.515000", "161925.515000", "161926.515000", "161927.515000", "161928.515000", "161929.515000", "161930.515000", "161931.515000", "161932.515000", "161933.515000", "161934.515000", "161935.515000", "161936.515000", "161937.515000", "161938.515000", "161939.515000", "161940.515000", "161941.515000", "161942.515000", "161943.515000", "161944.515000", "161945.515000", "161946.515000", "161947.515000", "161948.515000", "161949.515000", "161950.515000", "161951.515000", "161952.515000", "161953.515000", "161954.515000", "161955.515000", "161956.515000", "161957.515000", "161958.515000", "161959.515000", "162000.515000", "162001.515000", "162002.515000", "162003.515000", "162004.515000", "162005.515000", "162006.515000", "162007.515000", "162008.515000", "162009.515000", "162010.515000", "162011.515000", "162012.515000", "162013.515000", "162014.515000", "162015.515000", "162016.515000", "162017.515000", "162018.515000", "162019.515000", "162020.515000", "162021.515000", "162022.515000", "162023.515000", "162024.515000", "162025.515000", "162026.515000", "162027.515000", "162028.515000", "162029.515000", "162030.515000", "162031.515000", "162032.515000", "162033.515000", "162034.515000", "162035.515000", "162036.515000", "162037.515000", "162038.515000", "162039.515000", "162040.515000", "162041.515000", "162042.515000", "162043.515000", "162044.515000", "162045.515000", "162046.515000", "162047.515000", "162048.515000", "162049.515000", "162050.515000", "162051.515000", "162052.515000", "162053.515000", "162054.515000", "162055.515000"],
      "ContentTime": ["161844.573000", "161844.577000", "161844.580000", "161844.583000", "161844.585000", "161904.526000", "161904.529000", "161904.532000", "161904.535000", "161904.537000", "161904.541000", "161904.543000", "161904.546000", "161904.549000", "161904.552000", "161904.555000", "161904.558000", "161904.561000", "161904.564000", "161904.566000", "161904.569000", "161904.572000", "161904.575000", "161904.578000", "161904.581000", "161904.584000", "161904.586000", "161904.602000", "161904.605000", "161904.607000", "161904.610000", "161904.613000", "161904.616000", "161904.619000", "161924.526000", "161924.543000", "161924.546000", "161924.549000", "161924.552000", "161924.555000", "161924.557000", "161924.560000", "161924.563000", "161924.566000", "161924.569000", "161924.572000", "161924.575000", "161924.578000", "161924.581000", "161924.584000", "161924.593000", "161924.596000", "161924.599000", "161924.602000", "161924.605000", "161924.607000", "161924.610000", "161924.613000", "161924.616000", "161924.619000", "161924.622000", "161924.630000", "161944.525000", "161944.528000", "161944.531000", "161944.534000", "161944.537000", "161944.539000", "161944.542000", "161944.545000", "161944.548000", "161944.551000", "161944.554000", "161944.557000", "161944.560000", "161944.563000", "161944.566000", "161944.569000", "161944.572000", "161944.574000", "161944.577000", "161944.580000", "161944.583000", "161944.586000", "161944.589000", "161944.592000", "161944.595000", "161944.598000", "161944.600000", "161944.603000", "162004.526000", "162004.529000", "162004.532000", "162004.535000", "162004.538000", "162004.541000", "162004.543000", "162004.546000", "162004.549000", "162004.552000", "162004.555000", "162004.558000", "162004.561000", "162004.564000", "162004.567000", "162004.570000", "162004.573000", "162004.576000", "162004.579000", "162004.582000", "162004.585000", "162004.588000", "162004.590000", "162004.593000", "162004.596000", "162004.599000", "162004.602000", "162004.605000", "162024.526000", "162024.529000", "162024.532000", "162024.535000", "162024.538000", "162024.541000", "162024.544000", "162024.547000", "162024.549000", "162024.552000", "162024.555000", "162024.558000", "162024.561000", "162024.564000", "162024.567000", "162024.570000", "162024.573000", "162024.576000", "162024.579000", "162024.582000", "162024.584000", "162024.587000", "162024.590000", "162024.593000", "162024.596000", "162024.599000", "162024.603000", "162024.608000", "162044.526000", "162044.529000", "162044.532000", "162044.535000", "162044.537000", "162044.540000", "162044.543000", "162044.546000", "162044.549000", "162044.552000", "162044.555000", "162044.558000", "162044.561000", "162044.564000", "162044.567000", "162044.570000", "162044.573000", "162044.575000", "162044.578000", "162044.581000", "162044.584000", "162044.587000", "162044.590000", "162044.593000", "162044.596000", "162044.599000", "162044.602000", "162044.605000", "162044.607000", "162057.347000", "162057.350000", "162057.353000", "162057.356000", "162057.359000", "162057.362000", "162057.365000", "162057.368000", "162057.371000", "162057.374000", "162057.377000", "162057.380000", "162057.383000", "162057.386000", "162057.389000", "162057.391000", "162057.394000"],
      "InstanceCreationTime": ["161844.573000", "161844.577000", "161844.580000", "161844.583000", "161844.585000", "161904.526000", "161904.529000", "161904.532000", "161904.535000", "161904.537000", "161904.541000", "161904.543000", "161904.546000", "161904.549000", "161904.552000", "161904.555000", "161904.558000", "161904.561000", "161904.564000", "161904.566000", "161904.569000", "161904.572000", "161904.575000", "161904.578000", "161904.581000", "161904.584000", "161904.586000", "161904.602000", "161904.605000", "161904.607000", "161904.610000", "161904.613000", "161904.616000", "161904.619000", "161924.526000", "161924.543000", "161924.546000", "161924.549000", "161924.552000", "161924.555000", "161924.557000", "161924.560000", "161924.563000", "161924.566000", "161924.569000", "161924.572000", "161924.575000", "161924.578000", "161924.581000", "161924.584000", "161924.593000", "161924.596000", "161924.599000", "161924.602000", "161924.605000", "161924.607000", "161924.610000", "161924.613000", "161924.616000", "161924.619000", "161924.622000", "161924.630000", "161944.525000", "161944.528000", "161944.531000", "161944.534000", "161944.537000", "161944.539000", "161944.542000", "161944.545000", "161944.548000", "161944.551000", "161944.554000", "161944.557000", "161944.560000", "161944.563000", "161944.566000", "161944.569000", "161944.572000", "161944.574000", "161944.577000", "161944.580000", "161944.583000", "161944.586000", "161944.589000", "161944.592000", "161944.595000", "161944.598000", "161944.600000", "161944.603000", "162004.526000", "162004.529000", "162004.532000", "162004.535000", "162004.538000", "162004.541000", "162004.543000", "162004.546000", "162004.549000", "162004.552000", "162004.555000", "162004.558000", "162004.561000", "162004.564000", "162004.567000", "162004.570000", "162004.573000", "162004.576000", "162004.579000", "162004.582000", "162004.585000", "162004.588000", "162004.590000", "162004.593000", "162004.596000", "162004.599000", "162004.602000", "162004.605000", "162024.526000", "162024.529000", "162024.532000", "162024.535000", "162024.538000", "162024.541000", "162024.544000", "162024.547000", "162024.549000", "162024.552000", "162024.555000", "162024.558000", "162024.561000", "162024.564000", "162024.567000", "162024.570000", "162024.573000", "162024.576000", "162024.579000", "162024.582000", "162024.584000", "162024.587000", "162024.590000", "162024.593000", "162024.596000", "162024.599000", "162024.603000", "162024.608000", "162044.526000", "162044.529000", "162044.532000", "162044.535000", "162044.537000", "162044.540000", "162044.543000", "162044.546000", "162044.549000", "162044.552000", "162044.555000", "162044.558000", "162044.561000", "162044.564000", "162044.567000", "162044.570000", "162044.573000", "162044.575000", "162044.578000", "162044.581000", "162044.584000", "162044.587000", "162044.590000", "162044.593000", "162044.596000", "162044.599000", "162044.602000", "162044.605000", "162044.607000", "162057.347000", "162057.350000", "162057.353000", "162057.356000", "162057.359000", "162057.362000", "162057.365000", "162057.368000", "162057.371000", "162057.374000", "162057.377000", "162057.380000", "162057.383000", "162057.386000", "162057.389000", "162057.391000", "162057.394000"],
      "InstanceNumber": [1, 2, 3, 4, 5, 6, 7, 8, 9, 10, 11, 12, 13, 14, 15, 16, 17, 18, 19, 20, 21, 22, 23, 24, 25, 26, 27, 28, 29, 30, 31, 32, 33, 34, 35, 36, 37, 38, 39, 40, 41, 42, 43, 44, 45, 46, 47, 48, 49, 50, 51, 52, 53, 54, 55, 56, 57, 58, 59, 60, 61, 62, 63, 64, 65, 66, 67, 68, 69, 70, 71, 72, 73, 74, 75, 76, 77, 78, 79, 80, 81, 82, 83, 84, 85, 86, 87, 88, 89, 90, 91, 92, 93, 94, 95, 96, 97, 98, 99, 100, 101, 102, 103, 104, 105, 106, 107, 108, 109, 110, 111, 112, 113, 114, 115, 116, 117, 118, 119, 120, 121, 122, 123, 124, 125, 126, 127, 128, 129, 130, 131, 132, 133, 134, 135, 136, 137, 138, 139, 140, 141, 142, 143, 144, 145, 146, 147, 148, 149, 150, 151, 152, 153, 154, 155, 156, 157, 158, 159, 160, 161, 162, 163, 164, 165, 166, 167, 168, 169, 170, 171, 172, 173, 174, 175, 176, 177, 178, 179, 180, 181, 182, 183, 184, 185, 186, 187, 188, 189, 190, 191, 192],
      "LargestImagePixelValue": [37435, 36779, 36330, 36611, 35880, 36161, 36233, 35509, 36542, 36172, 35673, 35565, 35771, 35878, 35943, 35693, 36020, 35725, 35289, 35538, 35634, 35045, 35376, 35011, 35094, 35390, 35503, 35712, 35772, 35683, 35584, 36066, 36052, 36131, 36069, 36138, 36087, 35886, 35992, 35517, 35928, 35492, 35555, 35572, 35326, 35482, 35717, 36099, 35921, 35719, 35923, 36171, 36024, 35957, 36069, 35813, 35479, 35752, 35978, 35506, 35718, 35819, 35776, 36033, 35488, 35274, 35801, 35908, 35750, 35833, 35672, 35931, 36233, 35785, 36235, 36221, 35841, 36083, 35921, 35968, 35955, 35623, 35771, 35810, 36201, 35647, 35704, 35445, 35680, 36071, 35732, 35905, 35587, 35608, 35760, 35662, 35846, 36125, 36528, 36425, 36131, 35785, 35738, 35745, 35698, 35536, 35611, 35697, 36108, 36048, 36012, 36107, 36141, 36044, 35866, 35489, 36324, 36028, 36255, 36287, 35936, 36486, 36169, 36309, 36412, 36149, 35845, 35853, 35696, 35606, 35823, 35812, 35816, 35710, 36204, 35796, 35317, 35070, 35336, 35830, 36128, 35660, 35746, 35794, 35986, 36197, 35969, 35869, 36113, 35502, 35975, 35729, 35526, 35254, 35736, 35591, 35806, 35540, 35749, 35418, 35467, 35352, 35505, 34912, 35250, 35880, 35235, 35723, 35581, 35895, 35797, 35632, 35394, 35511, 35074, 35790, 35640, 35980, 35623, 35445, 35371, 35104, 35591, 35427, 35544, 35165, 35510, 35617, 35789, 35964, 35825, 35586],
      "WindowCenter": [9912.0, 9866.0, 9833.0, 9815.0, 9802.0, 9797.0, 9791.0, 9793.0, 9812.0, 9814.0, 9813.0, 9804.0, 9804.0, 9800.0, 9794.0, 9799.0, 9799.0, 9801.0, 9803.0, 9808.0, 9813.0, 9808.0, 9803.0, 9792.0, 9787.0, 9785.0, 9785.0, 9789.0, 9783.0, 9775.0, 9773.0, 9786.0, 9786.0, 9788.0, 9798.0, 9804.0, 9813.0, 9810.0, 9815.0, 9820.0, 9833.0, 9835.0, 9836.0, 9828.0, 9813.0, 9810.0, 9801.0, 9797.0, 9791.0, 9776.0, 9777.0, 9790.0, 9796.0, 9807.0, 9807.0, 9802.0, 9797.0, 9799.0, 9800.0, 9801.0, 9798.0, 9799.0, 9807.0, 9806.0, 9802.0, 9803.0, 9807.0, 9809.0, 9807.0, 9802.0, 9804.0, 9808.0, 9808.0, 9808.0, 9808.0, 9808.0, 9814.0, 9814.0, 9803.0, 9809.0, 9802.0, 9801.0, 9814.0, 9808.0, 9816.0, 9812.0, 9802.0, 9802.0, 9801.0, 9814.0, 9824.0, 9825.0, 9815.0, 9804.0, 9793.0, 9778.0, 9776.0, 9779.0, 9785.0, 9802.0, 9813.0, 9823.0, 9826.0, 9812.0, 9816.0, 9796.0, 9787.0, 9786.0, 9789.0, 9799.0, 9800.0, 9801.0, 9808.0, 9807.0, 9805.0, 9806.0, 9815.0, 9810.0, 9808.0, 9806.0, 9808.0, 9814.0, 9815.0, 9810.0, 9810.0, 9808.0, 9811.0, 9811.0, 9817.0, 9819.0, 9819.0, 9820.0, 9813.0, 9810.0, 9816.0, 9809.0, 9811.0, 9815.0, 9825.0, 9834.0, 9835.0, 9825.0, 9827.0, 9814.0, 9813.0, 9807.0, 9804.0, 9804.0, 9819.0, 9820.0, 9822.0, 9813.0, 9808.0, 9799.0, 9804.0, 9806.0, 9805.0, 9809.0, 9813.0, 9814.0, 9814.0, 9816.0, 9808.0, 9803.0, 9810.0, 9817.0, 9814.0, 9811.0, 9812.0, 9819.0, 9819.0, 9812.0, 9806.0, 9798.0, 9792.0, 9803.0, 9804.0, 9820.0, 9823.0, 9823.0, 9826.0, 9810.0, 9816.0, 9816.0, 9824.0, 9826.0, 9819.0, 9817.0, 9819.0, 9814.0, 9821.0, 9816.0],
      "WindowWidth": [21272.0, 21140.0, 21052.0, 20997.0, 20965.0, 20948.0, 20936.0, 20944.0, 20983.0, 20990.0, 20992.0, 20973.0, 20970.0, 20957.0, 20941.0, 20954.0, 20957.0, 20962.0, 20970.0, 20978.0, 20991.0, 20979.0, 20968.0, 20945.0, 20928.0, 20924.0, 20922.0, 20927.0, 20918.0, 20900.0, 20894.0, 20919.0, 20918.0, 20924.0, 20948.0, 20962.0, 20981.0, 20979.0, 20992.0, 21006.0, 21037.0, 21044.0, 21047.0, 21028.0, 20991.0, 20982.0, 20956.0, 20946.0, 20934.0, 20901.0, 20903.0, 20929.0, 20943.0, 20969.0, 20970.0, 20959.0, 20952.0, 20951.0, 20955.0, 20958.0, 20950.0, 20953.0, 20971.0, 20968.0, 20964.0, 20966.0, 20972.0, 20980.0, 20975.0, 20966.0, 20972.0, 20975.0, 20972.0, 20976.0, 20975.0, 20975.0, 20988.0, 20987.0, 20965.0, 20977.0, 20963.0, 20960.0, 20987.0, 20974.0, 20992.0, 20987.0, 20965.0, 20965.0, 20962.0, 20987.0, 21010.0, 21013.0, 20994.0, 20968.0, 20939.0, 20906.0, 20898.0, 20899.0, 20914.0, 20953.0, 20983.0, 21008.0, 21016.0, 20988.0, 20991.0, 20950.0, 20927.0, 20924.0, 20927.0, 20951.0, 20956.0, 20959.0, 20975.0, 20972.0, 20974.0, 20977.0, 20990.0, 20982.0, 20972.0, 20966.0, 20971.0, 20983.0, 20987.0, 20979.0, 20976.0, 20973.0, 20979.0, 20981.0, 20994.0, 20998.0, 20999.0, 21002.0, 20987.0, 20978.0, 20992.0, 20978.0, 20986.0, 20996.0, 21019.0, 21032.0, 21036.0, 21013.0, 21014.0, 20988.0, 20985.0, 20968.0, 20963.0, 20964.0, 20997.0, 21002.0, 21007.0, 20989.0, 20978.0, 20959.0, 20964.0, 20972.0, 20969.0, 20980.0, 20987.0, 20990.0, 20992.0, 20998.0, 20979.0, 20969.0, 20980.0, 20993.0, 20987.0, 20979.0, 20983.0, 20996.0, 20995.0, 20982.0, 20968.0, 20951.0, 20938.0, 20959.0, 20962.0, 21000.0, 21010.0, 21010.0, 21018.0, 20986.0, 20998.0, 20998.0, 21015.0, 21024.0, 21007.0, 21002.0, 21000.0, 20989.0, 21004.0, 20994.0]
    },
    "slices": {}
  },
  "NumberOfVolumes": 192
}