{
  "AcquisitionMatrixPE": 104,
  "AcquisitionNumber": 1,
  "AcquisitionTime": "15:21:24.472500",
  "BandwidthPerPixelPhaseEncode": 16.578,
  "BaseResolution": 104,
  "BodyPartExamined": "BRAIN",
  "ConsistencyInfo": "N4_VE11C_LATEST_20160120",
  "ConversionSoftware": "dcm2niix",
  "ConversionSoftwareVersion": "v1.0.20190902",
  "DerivedVendorReportedEchoSpacing": 0.000580009,
  "DeviceSerialNumber": "166018",
  "DwellTime": 2.1e-06,
  "EchoTime": 0.037,
  "EchoTrainLength": 104,
  "EffectiveEchoSpacing": 0.000580009,
  "FlipAngle": 68,
  "ImageComments": "Unaliased_MB6_PE3_LB",
  "ImageOrientationPatientDICOM": [0.995749, 0.0575733, -0.0718976, -0.0699788, 0.980415, -0.18409],
  "ImageType": [
    "ORIGINAL",
    "PRIMARY",
    "FMRI",
    "NONE",
    "MB",
    "ND",
    "MOSAIC"
],
  "ImagingFrequency": 123.191,
  "InPlanePhaseEncodingDirectionDICOM": "COL",
  "InstitutionAddress": "Washington_Place_6_NYC_NYC_US_10003",
  "InstitutionName": "NYU_-_CBI",
  "InstitutionalDepartmentName": "Department",
  "MRAcquisitionType": "2D",
  "MagneticFieldStrength": 3,
  "Manufacturer": "Siemens",
  "ManufacturersModelName": "Prisma",
  "Modality": "MR",
  "MultibandAccelerationFactor": 6,
  "PartialFourier": 1,
  "PatientPosition": "HFS",
  "PercentPhaseFOV": 100,
  "PhaseEncodingDirection": "j",
  "PhaseEncodingSteps": 104,
  "PhaseResolution": 1,
  "PixelBandwidth": 2290,
  "ProcedureStepDescription": "Investigators_Winawer",
  "ProtocolName": "cmrr_mbepi_s6_2mm_66sl_PA_task-prf",
  "PulseSequenceDetails": "%CustomerSeq%_cmrr_mbep2d_bold",
  "ReceiveCoilActiveElements": "HC1-7",
  "ReceiveCoilName": "HeadNeck_64",
  "ReconMatrixPE": 104,
  "RepetitionTime": 1,
  "SAR": 0.0735244,
  "ScanOptions": "FS",
  "ScanningSequence": "EP",
  "SequenceName": "epfid2d1_104",
  "SequenceVariant": "SK_SS",
  "SeriesDescription": "cmrr_mbepi_s6_2mm_66sl_PA_task-prf",
  "SeriesNumber": 20,
  "ShimSetting": [249, -12594, -8436, 307, 68, -97, 85, 80],
  "SliceThickness": 2,
  "SliceTiming": [0, 0.535, 0.09, 0.625, 0.1775, 0.7125, 0.2675, 0.8025, 0.3575, 0.8925, 0.445, 0, 0.535, 0.09, 0.625, 0.1775, 0.7125, 0.2675, 0.8025, 0.3575, 0.8925, 0.445, 0, 0.535, 0.09, 0.625, 0.1775, 0.7125, 0.2675, 0.8025, 0.3575, 0.8925, 0.445, 0, 0.535, 0.09, 0.625, 0.1775, 0.7125, 0.2675, 0.8025, 0.3575, 0.8925, 0.445, 0, 0.535, 0.09, 0.625, 0.1775, 0.7125, 0.2675, 0.8025, 0.3575, 0.8925, 0.445, 0, 0.535, 0.09, 0.625, 0.1775, 0.7125, 0.2675, 0.8025, 0.3575, 0.8925, 0.445],
  "SoftwareVersions": "syngo_MR_E11",
  "SpacingBetweenSlices": 2,
  "StationName": "AWP166018",
  "TaskName": "prf",
  "TotalReadoutTime": 0.0597409,
  "TxRefAmp": 219.82,
  "WipMemBlock": "0e7078cb-3744-49c6-b311-83d4ace718eb||Sequence: R016 ve11c/master r/8780670; Nov 27 2017 15:05:12 by eja",
  "dcmmeta_affine": [
    [-1.9914979934692383, -0.13995765149593353, -0.11978162080049515, 116.59408569335938],
    [-0.11514659225940704, 1.9608303308486938, -0.37667712569236755, -71.59881591796875],
    [-0.14379513263702393, 0.36817964911460876, 1.9605525732040405, -59.780704498291016],
    [0.0, 0.0, 0.0, 1.0]
],
  "dcmmeta_reorient_transform": [
    [0.0, -1.0, 0.0, 103.0],
    [1.0, 0.0, 0.0, 0.0],
    [0.0, 0.0, 1.0, 0.0],
    [0.0, 0.0, 0.0, 1.0]
],
  "dcmmeta_shape": [104, 104, 66, 192],
  "dcmmeta_slice_dim": 2,
  "dcmmeta_version": 0.6,
  "global": {
    "const": {
      "AccessionNumber": "juLtgji7",
      "AcquisitionMatrix": [104, 0, 0, 104],
      "AngioFlag": "N",
      "BitsAllocated": 16,
      "BitsStored": 16,
      "BodyPartExamined": "BRAIN",
      "Columns": 936,
      "EchoNumbers": 1,
      "EchoTime": 37.0,
      "EchoTrainLength": 104,
      "FlipAngle": 68.0,
      "HighBit": 15,
      "ImageOrientationPatient": [0.99574899212958, 0.0575732943715, -0.0718975691393, -0.0699788223171, 0.98041516808814, -0.1840898221244],
      "ImagePositionPatient": [-872.4192267991, -993.97311158305, 191.12330985619],
      "ImageType": [
        "ORIGINAL",
        "PRIMARY",
        "FMRI",
        "NONE",
        "MB",
        "ND",
        "MOSAIC"
],
      "ImagedNucleus": "1H",
      "ImagingFrequency": 123.191018,
      "InPlanePhaseEncodingDirection": "COL",
      "MRAcquisitionType": "2D",
      "MagneticFieldStrength": 3.0,
      "Manufacturer": "SIEMENS",
      "ManufacturerModelName": "Prisma",
      "Modality": "MR",
      "NumberOfAverages": 1.0,
      "NumberOfPhaseEncodingSteps": 104,
      "PercentPhaseFieldOfView": 100.0,
      "PercentSampling": 100.0,
      "PerformedProcedureStepStartTime": "145457.116000",
      "PhotometricInterpretation": "MONOCHROME2",
      "PixelBandwidth": 2290.0,
      "PixelRepresentation": 0,
      "PixelSpacing": [2.0, 2.0],
      "ProtocolName": "cmrr_mbepi_s6_2mm_66sl_PA_task-prf",
      "RepetitionTime": 1000.0,
      "Rows": 936,
      "SAR": 0.07352442353441,
      "SamplesPerPixel": 1,
      "ScanOptions": "FS",
      "ScanningSequence": "EP",
      "SequenceName": "epfid2d1_104",
      "SequenceVariant": [
        "SK",
        "SS"
],
      "SeriesDescription": "cmrr_mbepi_s6_2mm_66sl_PA_task-prf",
      "SeriesNumber": 20,
      "SeriesTime": "152220.893000",
      "SliceLocation": -52.099704391474,
      "SliceThickness": 2.0,
      "SmallestImagePixelValue": 0,
      "SoftwareVersions": "syngo MR E11",
      "SpacingBetweenSlices": 1.9999999722402,
      "SpecificCharacterSet": "ISO_IR 100",
      "StudyID": "1",
      "StudyTime": "145457.069000",
      "TransmitCoilName": "Body",
      "VariableFlipAngleFlag": "N",
      "WindowCenterWidthExplanation": "Algo1",
      "dBdt": 0.0},
    "slices": {}
  },
  "time": {
    "samples": {
      "AcquisitionNumber": [1, 2, 3, 4, 5, 6, 7, 8, 9, 10, 11, 12, 13, 14, 15, 16, 17, 18, 19, 20, 21, 22, 23, 24, 25, 26, 27, 28, 29, 30, 31, 32, 33, 34, 35, 36, 37, 38, 39, 40, 41, 42, 43, 44, 45, 46, 47, 48, 49, 50, 51, 52, 53, 54, 55, 56, 57, 58, 59, 60, 61, 62, 63, 64, 65, 66, 67, 68, 69, 70, 71, 72, 73, 74, 75, 76, 77, 78, 79, 80, 81, 82, 83, 84, 85, 86, 87, 88, 89, 90, 91, 92, 93, 94, 95, 96, 97, 98, 99, 100, 101, 102, 103, 104, 105, 106, 107, 108, 109, 110, 111, 112, 113, 114, 115, 116, 117, 118, 119, 120, 121, 122, 123, 124, 125, 126, 127, 128, 129, 130, 131, 132, 133, 134, 135, 136, 137, 138, 139, 140, 141, 142, 143, 144, 145, 146, 147, 148, 149, 150, 151, 152, 153, 154, 155, 156, 157, 158, 159, 160, 161, 162, 163, 164, 165, 166, 167, 168, 169, 170, 171, 172, 173, 174, 175, 176, 177, 178, 179, 180, 181, 182, 183, 184, 185, 186, 187, 188, 189, 190, 191, 192],
      "AcquisitionTime": ["152124.472500", "152125.472500", "152126.472500", "152127.472500", "152128.472500", "152129.472500", "152130.472500", "152131.472500", "152132.472500", "152133.472500", "152134.472500", "152135.472500", "152136.472500", "152137.472500", "152138.472500", "152139.472500", "152140.472500", "152141.472500", "152142.472500", "152143.472500", "152144.472500", "152145.472500", "152146.472500", "152147.472500", "152148.472500", "152149.472500", "152150.472500", "152151.472500", "152152.472500", "152153.472500", "152154.472500", "152155.472500", "152156.472500", "152157.472500", "152158.472500", "152159.472500", "152200.472500", "152201.472500", "152202.472500", "152203.472500", "152204.472500", "152205.472500", "152206.472500", "152207.472500", "152208.472500", "152209.472500", "152210.472500", "152211.472500", "152212.472500", "152213.472500", "152214.472500", "152215.472500", "152216.472500", "152217.472500", "152218.472500", "152219.472500", "152220.472500", "152221.472500", "152222.472500", "152223.472500", "152224.472500", "152225.472500", "152226.472500", "152227.472500", "152228.472500", "152229.472500", "152230.472500", "152231.472500", "152232.472500", "152233.472500", "152234.472500", "152235.472500", "152236.472500", "152237.472500", "152238.472500", "152239.472500", "152240.472500", "152241.472500", "152242.472500", "152243.472500", "152244.472500", "152245.472500", "152246.472500", "152247.472500", "152248.472500", "152249.472500", "152250.472500", "152251.472500", "152252.472500", "152253.472500", "152254.472500", "152255.472500", "152256.472500", "152257.472500", "152258.472500", "152259.472500", "152300.472500", "152301.472500", "152302.472500", "152303.472500", "152304.472500", "152305.472500", "152306.472500", "152307.472500", "152308.472500", "152309.472500", "152310.472500", "152311.472500", "152312.472500", "152313.472500", "152314.472500", "152315.472500", "152316.472500", "152317.472500", "152318.472500", "152319.472500", "152320.472500", "152321.472500", "152322.472500", "152323.472500", "152324.472500", "152325.472500", "152326.472500", "152327.472500", "152328.472500", "152329.472500", "152330.472500", "152331.472500", "152332.472500", "152333.472500", "152334.472500", "152335.472500", "152336.472500", "152337.472500", "152338.472500", "152339.472500", "152340.472500", "152341.472500", "152342.472500", "152343.472500", "152344.472500", "152345.472500", "152346.472500", "152347.472500", "152348.472500", "152349.472500", "152350.472500", "152351.472500", "152352.472500", "152353.472500", "152354.472500", "152355.472500", "152356.472500", "152357.472500", "152358.472500", "152359.472500", "152400.472500", "152401.472500", "152402.472500", "152403.472500", "152404.472500", "152405.472500", "152406.472500", "152407.472500", "152408.472500", "152409.472500", "152410.472500", "152411.472500", "152412.472500", "152413.472500", "152414.472500", "152415.472500", "152416.472500", "152417.472500", "152418.472500", "152419.472500", "152420.472500", "152421.472500", "152422.472500", "152423.472500", "152424.472500", "152425.472500", "152426.472500", "152427.472500", "152428.472500", "152429.472500", "152430.472500", "152431.472500", "152432.472500", "152433.472500", "152434.472500", "152435.472500"],
      "ContentTime": ["152220.896000", "152221.565000", "152222.258000", "152222.956000", "152223.667000", "152224.322000", "152225.087000", "152225.737000", "152226.469000", "152227.159000", "152227.850000", "152228.571000", "152229.248000", "152229.958000", "152230.634000", "152231.328000", "152232.047000", "152232.759000", "152233.436000", "152234.153000", "152234.925000", "152235.563000", "152236.322000", "152237.091000", "152237.841000", "152238.481000", "152239.274000", "152239.906000", "152240.659000", "152241.317000", "152242.073000", "152242.714000", "152243.469000", "152244.160000", "152244.858000", "152245.520000", "152246.269000", "152247.004000", "152247.657000", "152248.425000", "152249.188000", "152249.833000", "152250.517000", "152251.231000", "152251.916000", "152252.651000", "152253.318000", "152254.060000", "152254.836000", "152255.583000", "152256.239000", "152256.953000", "152257.631000", "152258.396000", "152259.065000", "152259.823000", "152300.496000", "152301.289000", "152301.968000", "152302.727000", "152303.400000", "152304.187000", "152304.798000", "152305.500000", "152306.207000", "152306.880000", "152307.581000", "152308.272000", "152309.008000", "152309.701000", "152310.440000", "152311.114000", "152311.792000", "152312.550000", "152313.315000", "152314.028000", "152314.724000", "152315.432000", "152316.191000", "152316.836000", "152317.505000", "152318.274000", "152318.924000", "152319.672000", "152320.351000", "152321.138000", "152321.760000", "152322.484000", "152323.187000", "152323.968000", "152324.630000", "152325.388000", "152326.050000", "152326.792000", "152327.454000", "152328.281000", "152328.886000", "152329.633000", "152330.312000", "152331.054000", "152331.710000", "152332.440000", "152333.159000", "152333.839000", "152334.570000", "152335.357000", "152335.973000", "152336.732000", "152337.394000", "152338.187000", "152338.883000", "152339.590000", "152340.269000", "152341.011000", "152341.713000", "152342.409000", "152343.133000", "152343.817000", "152344.503000", "152345.221000", "152345.906000", "152346.625000", "152347.338000", "152348.041000", "152348.725000", "152349.449000", "152350.203000", "152350.847000", "152351.620000", "152352.292000", "152352.982000", "152353.690000", "152354.386000", "152355.138000", "152355.820000", "152356.533000", "152357.230000", "152357.943000", "152358.644000", "152359.375000", "152400.099000", "152400.761000", "152401.486000", "152402.251000", "152402.855000", "152403.557000", "152404.316000", "152404.979000", "152405.709000", "152406.393000", "152407.123000", "152407.819000", "152408.567000", "152409.247000", "152409.995000", "152410.673000", "152411.415000", "152412.100000", "152412.813000", "152413.574000", "152414.314000", "152414.959000", "152415.689000", "152416.397000", "152417.138000", "152417.800000", "152418.519000", "152419.215000", "152419.894000", "152420.653000", "152421.349000", "152422.068000", "152422.787000", "152423.535000", "152424.265000", "152424.945000", "152425.641000", "152426.384000", "152427.081000", "152427.770000", "152428.478000", "152429.242000", "152429.841000", "152430.577000", "152431.342000", "152432.375000", "152432.746000", "152433.425000", "152434.281000", "152435.285000", "152436.307000", "152437.277000"],
      "InstanceCreationTime": ["152220.896000", "152221.565000", "152222.258000", "152222.956000", "152223.667000", "152224.322000", "152225.087000", "152225.737000", "152226.469000", "152227.159000", "152227.850000", "152228.571000", "152229.248000", "152229.958000", "152230.634000", "152231.328000", "152232.047000", "152232.759000", "152233.436000", "152234.153000", "152234.925000", "152235.563000", "152236.322000", "152237.091000", "152237.841000", "152238.481000", "152239.274000", "152239.906000", "152240.659000", "152241.317000", "152242.073000", "152242.714000", "152243.469000", "152244.160000", "152244.858000", "152245.520000", "152246.269000", "152247.004000", "152247.657000", "152248.425000", "152249.188000", "152249.833000", "152250.517000", "152251.231000", "152251.916000", "152252.651000", "152253.318000", "152254.060000", "152254.836000", "152255.583000", "152256.239000", "152256.953000", "152257.631000", "152258.396000", "152259.065000", "152259.823000", "152300.496000", "152301.289000", "152301.968000", "152302.727000", "152303.400000", "152304.187000", "152304.798000", "152305.500000", "152306.207000", "152306.880000", "152307.581000", "152308.272000", "152309.008000", "152309.701000", "152310.440000", "152311.114000", "152311.792000", "152312.550000", "152313.315000", "152314.028000", "152314.724000", "152315.432000", "152316.191000", "152316.836000", "152317.505000", "152318.274000", "152318.924000", "152319.672000", "152320.351000", "152321.138000", "152321.760000", "152322.484000", "152323.187000", "152323.968000", "152324.630000", "152325.388000", "152326.050000", "152326.792000", "152327.454000", "152328.281000", "152328.886000", "152329.633000", "152330.312000", "152331.054000", "152331.710000", "152332.440000", "152333.159000", "152333.839000", "152334.570000", "152335.357000", "152335.973000", "152336.732000", "152337.394000", "152338.187000", "152338.883000", "152339.590000", "152340.269000", "152341.011000", "152341.713000", "152342.409000", "152343.133000", "152343.817000", "152344.503000", "152345.221000", "152345.906000", "152346.625000", "152347.338000", "152348.041000", "152348.725000", "152349.449000", "152350.203000", "152350.847000", "152351.620000", "152352.292000", "152352.982000", "152353.690000", "152354.386000", "152355.138000", "152355.820000", "152356.533000", "152357.230000", "152357.943000", "152358.644000", "152359.375000", "152400.099000", "152400.761000", "152401.486000", "152402.251000", "152402.855000", "152403.557000", "152404.316000", "152404.979000", "152405.709000", "152406.393000", "152407.123000", "152407.819000", "152408.567000", "152409.247000", "152409.995000", "152410.673000", "152411.415000", "152412.100000", "152412.813000", "152413.574000", "152414.314000", "152414.959000", "152415.689000", "152416.397000", "152417.138000", "152417.800000", "152418.519000", "152419.215000", "152419.894000", "152420.653000", "152421.349000", "152422.068000", "152422.787000", "152423.535000", "152424.265000", "152424.945000", "152425.641000", "152426.384000", "152427.081000", "152427.770000", "152428.478000", "152429.242000", "152429.841000", "152430.577000", "152431.342000", "152432.375000", "152432.746000", "152433.425000", "152434.281000", "152435.285000", "152436.307000", "152437.277000"],
      "InstanceNumber": [1, 2, 3, 4, 5, 6, 7, 8, 9, 10, 11, 12, 13, 14, 15, 16, 17, 18, 19, 20, 21, 22, 23, 24, 25, 26, 27, 28, 29, 30, 31, 32, 33, 34, 35, 36, 37, 38, 39, 40, 41, 42, 43, 44, 45, 46, 47, 48, 49, 50, 51, 52, 53, 54, 55, 56, 57, 58, 59, 60, 61, 62, 63, 64, 65, 66, 67, 68, 69, 70, 71, 72, 73, 74, 75, 76, 77, 78, 79, 80, 81, 82, 83, 84, 85, 86, 87, 88, 89, 90, 91, 92, 93, 94, 95, 96, 97, 98, 99, 100, 101, 102, 103, 104, 105, 106, 107, 108, 109, 110, 111, 112, 113, 114, 115, 116, 117, 118, 119, 120, 121, 122, 123, 124, 125, 126, 127, 128, 129, 130, 131, 132, 133, 134, 135, 136, 137, 138, 139, 140, 141, 142, 143, 144, 145, 146, 147, 148, 149, 150, 151, 152, 153, 154, 155, 156, 157, 158, 159, 160, 161, 162, 163, 164, 165, 166, 167, 168, 169, 170, 171, 172, 173, 174, 175, 176, 177, 178, 179, 180, 181, 182, 183, 184, 185, 186, 187, 188, 189, 190, 191, 192],
      "LargestImagePixelValue": [37452, 36691, 37649, 35891, 35281, 36432, 35440, 35254, 36390, 35350, 34206, 35713, 35949, 35513, 35359, 36042, 35617, 35022, 36070, 36129, 34845, 35860, 36775, 36323, 35328, 36189, 36577, 35386, 35350, 36417, 35438, 35492, 35938, 35975, 35304, 36060, 36127, 35586, 35625, 35971, 35387, 35273, 35757, 35709, 35132, 35608, 36183, 35136, 35556, 35645, 35124, 35758, 35610, 34811, 35086, 35376, 34783, 34645, 35659, 34486, 35318, 35166, 34229, 35101, 35420, 34852, 35030, 35183, 35100, 34705, 35086, 35273, 34742, 34352, 34685, 34930, 34238, 34704, 35007, 34601, 34321, 35353, 35877, 35589, 35205, 36209, 35984, 35279, 34974, 36468, 35481, 34471, 35446, 35424, 34940, 35805, 35218, 34584, 35652, 35555, 34372, 35390, 35788, 34502, 34793, 35995, 35459, 35053, 35114, 34833, 35052, 35561, 35708, 34960, 35317, 35338, 34516, 35488, 35714, 34662, 35100, 36188, 34883, 35074, 35849, 34718, 34700, 35847, 35120, 34949, 35820, 35201, 34868, 35502, 35183, 34372, 35331, 35251, 34754, 35872, 34913, 34559, 35287, 34663, 35612, 35247, 34437, 35118, 35890, 34410, 34712, 35831, 34589, 35282, 35446, 34889, 35041, 35549, 35109, 35375, 35560, 36241, 35204, 35457, 35215, 34529, 35215, 35509, 34537, 34975, 34772, 34280, 35577, 34865, 34595, 34789, 34490, 34357, 34387, 34612, 34116, 34700, 34960, 35040, 35160, 35104, 34760, 34838, 34940, 35214, 34617, 34854],
      "WindowCenter": [10293.0, 10276.0, 10279.0, 10261.0, 10248.0, 10241.0, 10220.0, 10217.0, 10219.0, 10209.0, 10216.0, 10237.0, 10229.0, 10217.0, 10204.0, 10205.0, 10198.0, 10194.0, 10210.0, 10216.0, 10208.0, 10219.0, 10222.0, 10214.0, 10191.0, 10200.0, 10199.0, 10197.0, 10205.0, 10217.0, 10213.0, 10212.0, 10212.0, 10212.0, 10216.0, 10227.0, 10228.0, 10225.0, 10231.0, 10222.0, 10222.0, 10225.0, 10237.0, 10239.0, 10235.0, 10239.0, 10237.0, 10224.0, 10221.0, 10220.0, 10215.0, 10221.0, 10222.0, 10217.0, 10224.0, 10224.0, 10227.0, 10236.0, 10246.0, 10236.0, 10241.0, 10243.0, 10235.0, 10245.0, 10250.0, 10245.0, 10249.0, 10253.0, 10251.0, 10248.0, 10244.0, 10228.0, 10227.0, 10206.0, 10203.0, 10206.0, 10204.0, 10218.0, 10218.0, 10211.0, 10214.0, 10218.0, 10221.0, 10212.0, 10200.0, 10202.0, 10210.0, 10215.0, 10211.0, 10226.0, 10215.0, 10207.0, 10215.0, 10213.0, 10209.0, 10219.0, 10208.0, 10208.0, 10213.0, 10212.0, 10204.0, 10221.0, 10221.0, 10213.0, 10220.0, 10223.0, 10224.0, 10226.0, 10226.0, 10221.0, 10227.0, 10227.0, 10230.0, 10219.0, 10217.0, 10216.0, 10213.0, 10224.0, 10229.0, 10214.0, 10215.0, 10219.0, 10198.0, 10210.0, 10214.0, 10204.0, 10205.0, 10221.0, 10209.0, 10210.0, 10219.0, 10208.0, 10204.0, 10208.0, 10203.0, 10201.0, 10220.0, 10226.0, 10224.0, 10232.0, 10214.0, 10210.0, 10218.0, 10207.0, 10218.0, 10224.0, 10222.0, 10228.0, 10230.0, 10219.0, 10207.0, 10219.0, 10203.0, 10216.0, 10216.0, 10212.0, 10219.0, 10225.0, 10213.0, 10218.0, 10216.0, 10214.0, 10208.0, 10208.0, 10202.0, 10203.0, 10200.0, 10204.0, 10193.0, 10199.0, 10194.0, 10212.0, 10231.0, 10234.0, 10230.0, 10221.0, 10206.0, 10202.0, 10191.0, 10189.0, 10183.0, 10181.0, 10176.0, 10180.0, 10174.0, 10173.0, 10174.0, 10176.0, 10183.0, 10197.0, 10194.0, 10194.0],
      "WindowWidth": [21978.0, 21930.0, 21927.0, 21892.0, 21861.0, 21836.0, 21791.0, 21784.0, 21783.0, 21766.0, 21790.0, 21830.0, 21812.0, 21790.0, 21761.0, 21757.0, 21746.0, 21742.0, 21771.0, 21783.0, 21773.0, 21792.0, 21792.0, 21775.0, 21730.0, 21741.0, 21740.0, 21741.0, 21761.0, 21784.0, 21780.0, 21776.0, 21774.0, 21776.0, 21787.0, 21809.0, 21813.0, 21810.0, 21821.0, 21802.0, 21802.0, 21811.0, 21833.0, 21840.0, 21832.0, 21837.0, 21832.0, 21805.0, 21794.0, 21793.0, 21785.0, 21796.0, 21798.0, 21791.0, 21802.0, 21803.0, 21815.0, 21835.0, 21852.0, 21832.0, 21841.0, 21847.0, 21837.0, 21857.0, 21867.0, 21861.0, 21869.0, 21871.0, 21867.0, 21860.0, 21848.0, 21811.0, 21813.0, 21765.0, 21753.0, 21759.0, 21759.0, 21788.0, 21786.0, 21775.0, 21783.0, 21789.0, 21792.0, 21772.0, 21747.0, 21752.0, 21773.0, 21787.0, 21782.0, 21805.0, 21786.0, 21772.0, 21782.0, 21776.0, 21771.0, 21789.0, 21767.0, 21766.0, 21774.0, 21772.0, 21763.0, 21795.0, 21793.0, 21783.0, 21797.0, 21798.0, 21801.0, 21807.0, 21807.0, 21800.0, 21813.0, 21812.0, 21817.0, 21797.0, 21789.0, 21784.0, 21782.0, 21801.0, 21810.0, 21783.0, 21780.0, 21782.0, 21744.0, 21766.0, 21774.0, 21757.0, 21760.0, 21788.0, 21767.0, 21769.0, 21784.0, 21764.0, 21760.0, 21766.0, 21757.0, 21760.0, 21796.0, 21809.0, 21807.0, 21817.0, 21783.0, 21776.0, 21786.0, 21767.0, 21787.0, 21800.0, 21801.0, 21811.0, 21813.0, 21792.0, 21766.0, 21784.0, 21757.0, 21782.0, 21783.0, 21779.0, 21795.0, 21803.0, 21782.0, 21794.0, 21786.0, 21779.0, 21768.0, 21766.0, 21755.0, 21758.0, 21747.0, 21755.0, 21734.0, 21744.0, 21734.0, 21779.0, 21817.0, 21829.0, 21823.0, 21796.0, 21761.0, 21753.0, 21728.0, 21723.0, 21714.0, 21706.0, 21694.0, 21704.0, 21689.0, 21685.0, 21690.0, 21696.0, 21710.0, 21741.0, 21734.0, 21735.0]
    },
    "slices": {}
  },
  "NumberOfVolumes": 192
}