{
  "AcquisitionMatrixPE": 104,
  "AcquisitionNumber": 1,
  "AcquisitionTime": "09:23:22.780000",
  "BandwidthPerPixelPhaseEncode": 16.578,
  "BaseResolution": 104,
  "BodyPartExamined": "BRAIN",
  "ConsistencyInfo": "N4_VE11C_LATEST_20160120",
  "ConversionSoftware": "dcm2niix",
  "ConversionSoftwareVersion": "v1.0.20190902",
  "DerivedVendorReportedEchoSpacing": 0.000580009,
  "DeviceSerialNumber": "166018",
  "DwellTime": 2.1e-06,
  "EchoTime": 0.037,
  "EchoTrainLength": 104,
  "EffectiveEchoSpacing": 0.000580009,
  "FlipAngle": 68,
  "ImageComments": "Unaliased_MB6_PE3_LB",
  "ImageOrientationPatientDICOM": [0.998427, -0.0552852, 0.00938103, 0.0559955, 0.974023, -0.219418],
  "ImageType": [
    "ORIGINAL",
    "PRIMARY",
    "M",
    "MB",
    "ND",
    "MOSAIC"
],
  "ImagingFrequency": 123.191,
  "InPlanePhaseEncodingDirectionDICOM": "COL",
  "InstitutionAddress": "Washington_Place_6_NYC_NYC_US_10003",
  "InstitutionName": "NYU_-_CBI",
  "InstitutionalDepartmentName": "Department",
  "MRAcquisitionType": "2D",
  "MagneticFieldStrength": 3,
  "Manufacturer": "Siemens",
  "ManufacturersModelName": "Prisma",
  "Modality": "MR",
  "MultibandAccelerationFactor": 6,
  "PartialFourier": 1,
  "PatientPosition": "HFS",
  "PercentPhaseFOV": 100,
  "PhaseEncodingDirection": "j",
  "PhaseEncodingSteps": 104,
  "PhaseResolution": 1,
  "PixelBandwidth": 2290,
  "ProcedureStepDescription": "Investigators_Winawer",
  "ProtocolName": "cmrr_mbepi_s6_2mm_66sl_PA_task-prf",
  "PulseSequenceDetails": "%CustomerSeq%_cmrr_mbep2d_bold",
  "ReceiveCoilActiveElements": "HC1-7",
  "ReceiveCoilName": "HeadNeck_64",
  "ReconMatrixPE": 104,
  "RepetitionTime": 1,
  "SAR": 0.0611204,
  "ScanOptions": "FS",
  "ScanningSequence": "EP",
  "SequenceName": "epfid2d1_104",
  "SequenceVariant": "SK_SS",
  "SeriesDescription": "cmrr_mbepi_s6_2mm_66sl_PA_task-prf",
  "SeriesNumber": 8,
  "ShimSetting": [287, -12608, -8480, 480, 34, -213, -122, -75],
  "SliceThickness": 2,
  "SliceTiming": [0, 0.5325, 0.0875, 0.6225, 0.1775, 0.7125, 0.2675, 0.8, 0.355, 0.89, 0.445, 0, 0.5325, 0.0875, 0.6225, 0.1775, 0.7125, 0.2675, 0.8, 0.355, 0.89, 0.445, 0, 0.5325, 0.0875, 0.6225, 0.1775, 0.7125, 0.2675, 0.8, 0.355, 0.89, 0.445, 0, 0.5325, 0.0875, 0.6225, 0.1775, 0.7125, 0.2675, 0.8, 0.355, 0.89, 0.445, 0, 0.5325, 0.0875, 0.6225, 0.1775, 0.7125, 0.2675, 0.8, 0.355, 0.89, 0.445, 0, 0.5325, 0.0875, 0.6225, 0.1775, 0.7125, 0.2675, 0.8, 0.355, 0.89, 0.445],
  "SoftwareVersions": "syngo_MR_E11",
  "SpacingBetweenSlices": 2,
  "StationName": "AWP166018",
  "TaskName": "prf",
  "TotalReadoutTime": 0.0597409,
  "TxRefAmp": 211.783,
  "WipMemBlock": "d22927c4-9e9e-43c2-8d0a-ae9b676d3b5d||Sequence: R016 ve11c/master r/8780670; Nov 27 2017 15:05:12 by eja",
  "dcmmeta_affine": [
    [-1.9968531131744385, 0.11199100315570831, -0.005986477714031935, 104.43470764160156],
    [0.11057037860155106, 1.9480453729629517, -0.4391964077949524, -68.59052276611328],
    [0.01876205764710903, 0.43883630633354187, 1.951171636581421, -89.40106201171875],
    [0.0, 0.0, 0.0, 1.0]
],
  "dcmmeta_reorient_transform": [
    [0.0, -1.0, 0.0, 103.0],
    [1.0, 0.0, 0.0, 0.0],
    [0.0, 0.0, 1.0, 0.0],
    [0.0, 0.0, 0.0, 1.0]
],
  "dcmmeta_shape": [104, 104, 66, 192],
  "dcmmeta_slice_dim": 2,
  "dcmmeta_version": 0.6,
  "global": {
    "const": {
      "AccessionNumber": "jura7h2e",
      "AcquisitionMatrix": [104, 0, 0, 104],
      "AngioFlag": "N",
      "BitsAllocated": 16,
      "BitsStored": 16,
      "BodyPartExamined": "BRAIN",
      "Columns": 936,
      "EchoNumbers": 1,
      "EchoTime": 37.0,
      "EchoTrainLength": 104,
      "FlipAngle": 68.0,
      "HighBit": 15,
      "ImageOrientationPatient": [0.99842653421533, -0.0552851885032, 0.00938102909778, 0.05599550246081, 0.97402267827199, -0.2194181531142],
      "ImagePositionPatient": [-993.24891946012, -896.44774324343, 130.54996353343],
      "ImageType": [
        "ORIGINAL",
        "PRIMARY",
        "M",
        "MB",
        "ND",
        "MOSAIC"
],
      "ImagedNucleus": "1H",
      "ImagingFrequency": 123.191172,
      "InPlanePhaseEncodingDirection": "COL",
      "MRAcquisitionType": "2D",
      "MagneticFieldStrength": 3.0,
      "Manufacturer": "SIEMENS",
      "ManufacturerModelName": "Prisma",
      "Modality": "MR",
      "NumberOfAverages": 1.0,
      "NumberOfPhaseEncodingSteps": 104,
      "PercentPhaseFieldOfView": 100.0,
      "PercentSampling": 100.0,
      "PerformedProcedureStepStartTime": "090550.678000",
      "PhotometricInterpretation": "MONOCHROME2",
      "PixelBandwidth": 2290.0,
      "PixelRepresentation": 0,
      "PixelSpacing": [2.0, 2.0],
      "ProtocolName": "cmrr_mbepi_s6_2mm_66sl_PA_task-prf",
      "RepetitionTime": 1000.0,
      "Rows": 936,
      "SAR": 0.06112039097795,
      "SamplesPerPixel": 1,
      "ScanOptions": "FS",
      "ScanningSequence": "EP",
      "SequenceName": "epfid2d1_104",
      "SequenceVariant": [
        "SK",
        "SS"
],
      "SeriesDescription": "cmrr_mbepi_s6_2mm_66sl_PA_task-prf",
      "SeriesNumber": 8,
      "SeriesTime": "092423.915000",
      "SliceLocation": -72.468651747613,
      "SliceThickness": 2.0,
      "SmallestImagePixelValue": 0,
      "SoftwareVersions": "syngo MR E11",
      "SpacingBetweenSlices": 1.9999999664337,
      "SpecificCharacterSet": "ISO_IR 100",
      "StudyID": "1",
      "StudyTime": "090550.517000",
      "TransmitCoilName": "Body",
      "VariableFlipAngleFlag": "N",
      "WindowCenterWidthExplanation": "Algo1",
      "dBdt": 0.0},
    "slices": {}
  },
  "time": {
    "samples": {
      "AcquisitionNumber": [1, 2, 3, 4, 5, 6, 7, 8, 9, 10, 11, 12, 13, 14, 15, 16, 17, 18, 19, 20, 21, 22, 23, 24, 25, 26, 27, 28, 29, 30, 31, 32, 33, 34, 35, 36, 37, 38, 39, 40, 41, 42, 43, 44, 45, 46, 47, 48, 49, 50, 51, 52, 53, 54, 55, 56, 57, 58, 59, 60, 61, 62, 63, 64, 65, 66, 67, 68, 69, 70, 71, 72, 73, 74, 75, 76, 77, 78, 79, 80, 81, 82, 83, 84, 85, 86, 87, 88, 89, 90, 91, 92, 93, 94, 95, 96, 97, 98, 99, 100, 101, 102, 103, 104, 105, 106, 107, 108, 109, 110, 111, 112, 113, 114, 115, 116, 117, 118, 119, 120, 121, 122, 123, 124, 125, 126, 127, 128, 129, 130, 131, 132, 133, 134, 135, 136, 137, 138, 139, 140, 141, 142, 143, 144, 145, 146, 147, 148, 149, 150, 151, 152, 153, 154, 155, 156, 157, 158, 159, 160, 161, 162, 163, 164, 165, 166, 167, 168, 169, 170, 171, 172, 173, 174, 175, 176, 177, 178, 179, 180, 181, 182, 183, 184, 185, 186, 187, 188, 189, 190, 191, 192],
      "AcquisitionTime": ["092322.780000", "092323.780000", "092324.780000", "092325.780000", "092326.780000", "092327.780000", "092328.780000", "092329.780000", "092330.780000", "092331.780000", "092332.780000", "092333.780000", "092334.780000", "092335.780000", "092336.780000", "092337.780000", "092338.780000", "092339.780000", "092340.780000", "092341.780000", "092342.780000", "092343.780000", "092344.780000", "092345.780000", "092346.780000", "092347.780000", "092348.780000", "092349.780000", "092350.780000", "092351.780000", "092352.780000", "092353.780000", "092354.780000", "092355.780000", "092356.780000", "092357.780000", "092358.780000", "092359.780000", "092400.780000", "092401.780000", "092402.780000", "092403.780000", "092404.780000", "092405.780000", "092406.780000", "092407.780000", "092408.780000", "092409.780000", "092410.780000", "092411.780000", "092412.780000", "092413.780000", "092414.780000", "092415.780000", "092416.780000", "092417.780000", "092418.780000", "092419.780000", "092420.780000", "092421.780000", "092422.780000", "092423.780000", "092424.780000", "092425.780000", "092426.780000", "092427.780000", "092428.780000", "092429.780000", "092430.780000", "092431.780000", "092432.780000", "092433.780000", "092434.780000", "092435.780000", "092436.780000", "092437.780000", "092438.780000", "092439.780000", "092440.780000", "092441.780000", "092442.780000", "092443.780000", "092444.780000", "092445.780000", "092446.780000", "092447.780000", "092448.780000", "092449.780000", "092450.780000", "092451.780000", "092452.780000", "092453.780000", "092454.780000", "092455.780000", "092456.780000", "092457.780000", "092458.780000", "092459.780000", "092500.780000", "092501.780000", "092502.780000", "092503.780000", "092504.780000", "092505.780000", "092506.780000", "092507.780000", "092508.780000", "092509.780000", "092510.780000", "092511.780000", "092512.780000", "092513.780000", "092514.780000", "092515.780000", "092516.780000", "092517.780000", "092518.780000", "092519.780000", "092520.780000", "092521.780000", "092522.780000", "092523.780000", "092524.780000", "092525.780000", "092526.780000", "092527.780000", "092528.780000", "092529.780000", "092530.780000", "092531.780000", "092532.780000", "092533.780000", "092534.780000", "092535.780000", "092536.780000", "092537.780000", "092538.780000", "092539.780000", "092540.780000", "092541.780000", "092542.780000", "092543.780000", "092544.780000", "092545.780000", "092546.780000", "092547.780000", "092548.780000", "092549.780000", "092550.780000", "092551.780000", "092552.780000", "092553.780000", "092554.780000", "092555.780000", "092556.780000", "092557.780000", "092558.780000", "092559.780000", "092600.780000", "092601.780000", "092602.780000", "092603.780000", "092604.780000", "092605.780000", "092606.780000", "092607.780000", "092608.780000", "092609.780000", "092610.780000", "092611.780000", "092612.780000", "092613.780000", "092614.780000", "092615.780000", "092616.780000", "092617.780000", "092618.780000", "092619.780000", "092620.780000", "092621.780000", "092622.780000", "092623.780000", "092624.780000", "092625.780000", "092626.780000", "092627.780000", "092628.780000", "092629.780000", "092630.780000", "092631.780000", "092632.780000", "092633.780000"],
      "ContentTime": ["092423.918000", "092423.921000", "092423.924000", "092423.934000", "092423.937000", "092423.940000", "092428.887000", "092428.890000", "092428.893000", "092428.896000", "092428.898000", "092428.901000", "092428.904000", "092433.887000", "092433.890000", "092433.893000", "092433.896000", "092433.916000", "092433.919000", "092433.922000", "092438.886000", "092438.889000", "092438.892000", "092438.894000", "092438.897000", "092438.900000", "092438.903000", "092438.910000", "092443.887000", "092443.890000", "092443.893000", "092443.896000", "092443.898000", "092443.901000", "092443.904000", "092448.887000", "092448.890000", "092448.893000", "092448.896000", "092448.899000", "092448.901000", "092448.904000", "092453.887000", "092453.890000", "092453.893000", "092453.896000", "092453.898000", "092453.901000", "092453.905000", "092458.886000", "092458.889000", "092458.892000", "092458.895000", "092458.897000", "092458.904000", "092458.907000", "092503.887000", "092503.890000", "092503.893000", "092503.896000", "092503.898000", "092503.901000", "092503.904000", "092508.887000", "092508.890000", "092508.893000", "092508.896000", "092508.898000", "092508.901000", "092508.904000", "092513.886000", "092513.889000", "092513.892000", "092513.895000", "092513.897000", "092513.900000", "092513.903000", "092518.887000", "092518.890000", "092518.893000", "092518.896000", "092518.898000", "092518.901000", "092518.904000", "092523.887000", "092523.890000", "092523.893000", "092523.896000", "092523.899000", "092523.902000", "092523.905000", "092528.887000", "092528.890000", "092528.893000", "092528.896000", "092528.899000", "092528.901000", "092528.904000", "092528.907000", "092533.886000", "092533.889000", "092533.892000", "092533.895000", "092533.898000", "092533.900000", "092533.903000", "092538.887000", "092538.890000", "092538.893000", "092538.896000", "092538.898000", "092538.901000", "092538.904000", "092543.887000", "092543.890000", "092543.893000", "092543.896000", "092543.898000", "092543.901000", "092543.904000", "092548.886000", "092548.889000", "092548.892000", "092548.895000", "092548.898000", "092548.900000", "092548.903000", "092553.887000", "092553.890000", "092553.893000", "092553.896000", "092553.898000", "092553.901000", "092553.904000", "092558.887000", "092558.891000", "092558.894000", "092558.897000", "092558.900000", "092558.903000", "092558.906000", "092603.887000", "092603.890000", "092603.893000", "092603.896000", "092603.899000", "092603.901000", "092603.904000", "092608.886000", "092608.889000", "092608.892000", "092608.895000", "092608.898000", "092608.900000", "092608.904000", "092613.887000", "092613.890000", "092613.893000", "092613.896000", "092613.899000", "092613.901000", "092613.904000", "092618.887000", "092618.890000", "092618.893000", "092618.896000", "092618.898000", "092618.901000", "092618.904000", "092623.886000", "092623.889000", "092623.892000", "092623.909000", "092623.912000", "092623.915000", "092623.917000", "092628.887000", "092628.890000", "092628.893000", "092628.896000", "092628.898000", "092628.901000", "092628.904000", "092633.887000", "092633.890000", "092633.893000", "092633.896000", "092633.899000", "092633.902000", "092633.905000", "092635.475000", "092635.478000"],
      "InstanceCreationTime": ["092423.918000", "092423.921000", "092423.924000", "092423.934000", "092423.937000", "092423.940000", "092428.887000", "092428.890000", "092428.893000", "092428.896000", "092428.898000", "092428.901000", "092428.904000", "092433.887000", "092433.890000", "092433.893000", "092433.896000", "092433.916000", "092433.919000", "092433.922000", "092438.886000", "092438.889000", "092438.892000", "092438.894000", "092438.897000", "092438.900000", "092438.903000", "092438.910000", "092443.887000", "092443.890000", "092443.893000", "092443.896000", "092443.898000", "092443.901000", "092443.904000", "092448.887000", "092448.890000", "092448.893000", "092448.896000", "092448.899000", "092448.901000", "092448.904000", "092453.887000", "092453.890000", "092453.893000", "092453.896000", "092453.898000", "092453.901000", "092453.905000", "092458.886000", "092458.889000", "092458.892000", "092458.895000", "092458.897000", "092458.904000", "092458.907000", "092503.887000", "092503.890000", "092503.893000", "092503.896000", "092503.898000", "092503.901000", "092503.904000", "092508.887000", "092508.890000", "092508.893000", "092508.896000", "092508.898000", "092508.901000", "092508.904000", "092513.886000", "092513.889000", "092513.892000", "092513.895000", "092513.897000", "092513.900000", "092513.903000", "092518.887000", "092518.890000", "092518.893000", "092518.896000", "092518.898000", "092518.901000", "092518.904000", "092523.887000", "092523.890000", "092523.893000", "092523.896000", "092523.899000", "092523.902000", "092523.905000", "092528.887000", "092528.890000", "092528.893000", "092528.896000", "092528.899000", "092528.901000", "092528.904000", "092528.907000", "092533.886000", "092533.889000", "092533.892000", "092533.895000", "092533.898000", "092533.900000", "092533.903000", "092538.887000", "092538.890000", "092538.893000", "092538.896000", "092538.898000", "092538.901000", "092538.904000", "092543.887000", "092543.890000", "092543.893000", "092543.896000", "092543.898000", "092543.901000", "092543.904000", "092548.886000", "092548.889000", "092548.892000", "092548.895000", "092548.898000", "092548.900000", "092548.903000", "092553.887000", "092553.890000", "092553.893000", "092553.896000", "092553.898000", "092553.901000", "092553.904000", "092558.887000", "092558.891000", "092558.894000", "092558.897000", "092558.900000", "092558.903000", "092558.906000", "092603.887000", "092603.890000", "092603.893000", "092603.896000", "092603.899000", "092603.901000", "092603.904000", "092608.886000", "092608.889000", "092608.892000", "092608.895000", "092608.898000", "092608.900000", "092608.904000", "092613.887000", "092613.890000", "092613.893000", "092613.896000", "092613.899000", "092613.901000", "092613.904000", "092618.887000", "092618.890000", "092618.893000", "092618.896000", "092618.898000", "092618.901000", "092618.904000", "092623.886000", "092623.889000", "092623.892000", "092623.909000", "092623.912000", "092623.915000", "092623.917000", "092628.887000", "092628.890000", "092628.893000", "092628.896000", "092628.898000", "092628.901000", "092628.904000", "092633.887000", "092633.890000", "092633.893000", "092633.896000", "092633.899000", "092633.902000", "092633.905000", "092635.475000", "092635.478000"],
      "InstanceNumber": [1, 2, 3, 4, 5, 6, 7, 8, 9, 10, 11, 12, 13, 14, 15, 16, 17, 18, 19, 20, 21, 22, 23, 24, 25, 26, 27, 28, 29, 30, 31, 32, 33, 34, 35, 36, 37, 38, 39, 40, 41, 42, 43, 44, 45, 46, 47, 48, 49, 50, 51, 52, 53, 54, 55, 56, 57, 58, 59, 60, 61, 62, 63, 64, 65, 66, 67, 68, 69, 70, 71, 72, 73, 74, 75, 76, 77, 78, 79, 80, 81, 82, 83, 84, 85, 86, 87, 88, 89, 90, 91, 92, 93, 94, 95, 96, 97, 98, 99, 100, 101, 102, 103, 104, 105, 106, 107, 108, 109, 110, 111, 112, 113, 114, 115, 116, 117, 118, 119, 120, 121, 122, 123, 124, 125, 126, 127, 128, 129, 130, 131, 132, 133, 134, 135, 136, 137, 138, 139, 140, 141, 142, 143, 144, 145, 146, 147, 148, 149, 150, 151, 152, 153, 154, 155, 156, 157, 158, 159, 160, 161, 162, 163, 164, 165, 166, 167, 168, 169, 170, 171, 172, 173, 174, 175, 176, 177, 178, 179, 180, 181, 182, 183, 184, 185, 186, 187, 188, 189, 190, 191, 192],
      "LargestImagePixelValue": [31285, 29433, 28319, 28289, 30816, 30183, 28673, 28471, 28724, 28359, 28652, 28346, 28234, 32912, 28674, 28571, 28613, 28242, 27911, 32057, 28012, 27991, 28177, 33442, 27737, 27829, 27882, 28351, 28508, 30229, 28137, 31184, 29969, 29505, 28294, 28472, 28316, 28409, 27837, 27585, 28016, 28101, 28400, 29018, 28231, 30503, 28069, 28888, 28674, 31237, 29072, 27819, 28466, 28263, 28059, 28483, 28204, 28270, 28185, 27769, 28754, 31198, 29329, 28581, 28293, 32831, 27684, 28052, 28430, 28438, 30069, 28833, 28935, 28857, 28473, 28755, 29899, 31743, 27903, 28522, 28652, 28394, 28854, 28566, 29145, 29378, 29204, 28463, 28610, 28853, 28680, 29486, 29234, 30882, 30512, 33020, 31191, 27951, 28833, 27734, 31476, 31702, 29784, 29610, 29094, 28925, 29011, 29277, 28425, 28245, 31195, 27404, 28709, 28367, 28306, 31222, 29692, 27664, 28168, 28442, 29858, 28769, 29349, 28565, 28618, 29207, 28740, 28019, 34148, 27722, 28194, 28202, 28293, 28222, 30566, 28678, 28203, 31569, 27314, 30208, 29014, 29002, 28697, 28365, 28312, 32522, 29601, 28342, 28429, 28784, 30980, 33686, 28233, 28580, 28240, 28226, 28549, 29238, 28341, 27970, 28779, 28264, 28607, 30649, 28398, 28568, 28610, 29497, 28624, 29081, 28796, 29011, 29274, 29107, 29939, 29511, 29345, 28884, 28658, 28940, 28820, 30576, 28818, 29064, 28811, 28644, 28940, 28806, 28788, 28504, 28933, 29279],
      "WindowCenter": [8680.0, 8635.0, 8603.0, 8601.0, 8617.0, 8609.0, 8590.0, 8581.0, 8590.0, 8582.0, 8590.0, 8591.0, 8586.0, 8643.0, 8590.0, 8584.0, 8584.0, 8576.0, 8578.0, 8628.0, 8592.0, 8578.0, 8593.0, 8659.0, 8586.0, 8587.0, 8595.0, 8602.0, 8611.0, 8630.0, 8604.0, 8636.0, 8629.0, 8626.0, 8604.0, 8611.0, 8603.0, 8601.0, 8585.0, 8564.0, 8576.0, 8574.0, 8572.0, 8577.0, 8565.0, 8599.0, 8567.0, 8582.0, 8590.0, 8623.0, 8599.0, 8588.0, 8595.0, 8595.0, 8588.0, 8593.0, 8587.0, 8594.0, 8595.0, 8588.0, 8610.0, 8645.0, 8626.0, 8629.0, 8623.0, 8679.0, 8607.0, 8605.0, 8595.0, 8588.0, 8603.0, 8584.0, 8599.0, 8599.0, 8594.0, 8601.0, 8605.0, 8632.0, 8571.0, 8575.0, 8582.0, 8567.0, 8565.0, 8558.0, 8561.0, 8568.0, 8560.0, 8555.0, 8556.0, 8563.0, 8563.0, 8580.0, 8580.0, 8609.0, 8602.0, 8543.0, 8630.0, 8581.0, 8592.0, 8580.0, 8624.0, 8623.0, 8596.0, 8595.0, 8582.0, 8582.0, 8598.0, 8600.0, 8594.0, 8590.0, 8634.0, 8589.0, 8605.0, 8604.0, 8605.0, 8634.0, 8614.0, 8582.0, 8588.0, 8594.0, 8606.0, 8584.0, 8597.0, 8575.0, 8575.0, 8582.0, 8573.0, 8560.0, 8623.0, 8550.0, 8560.0, 8561.0, 8568.0, 8568.0, 8592.0, 8565.0, 8551.0, 8603.0, 8537.0, 8585.0, 8582.0, 8582.0, 8584.0, 8585.0, 8578.0, 8631.0, 8596.0, 8577.0, 8585.0, 8582.0, 8608.0, 8624.0, 8567.0, 8585.0, 8587.0, 8596.0, 8599.0, 8609.0, 8596.0, 8583.0, 8587.0, 8579.0, 8581.0, 8609.0, 8584.0, 8575.0, 8569.0, 8588.0, 8568.0, 8581.0, 8585.0, 8591.0, 8591.0, 8593.0, 8604.0, 8607.0, 8591.0, 8591.0, 8584.0, 8583.0, 8591.0, 8618.0, 8599.0, 8618.0, 8602.0, 8602.0, 8602.0, 8586.0, 8583.0, 8570.0, 8567.0, 8581.0],
      "WindowWidth": [18292.0, 18202.0, 18141.0, 18130.0, 18152.0, 18134.0, 18105.0, 18089.0, 18106.0, 18088.0, 18106.0, 18110.0, 18106.0, 18191.0, 18102.0, 18098.0, 18099.0, 18083.0, 18090.0, 18164.0, 18114.0, 18090.0, 18117.0, 18225.0, 18102.0, 18109.0, 18122.0, 18135.0, 18153.0, 18188.0, 18143.0, 18191.0, 18186.0, 18185.0, 18142.0, 18155.0, 18134.0, 18128.0, 18100.0, 18062.0, 18079.0, 18072.0, 18066.0, 18075.0, 18056.0, 18118.0, 18061.0, 18089.0, 18105.0, 18163.0, 18125.0, 18108.0, 18120.0, 18120.0, 18105.0, 18112.0, 18105.0, 18118.0, 18119.0, 18109.0, 18148.0, 18215.0, 18177.0, 18188.0, 18180.0, 18268.0, 18149.0, 18142.0, 18120.0, 18108.0, 18124.0, 18097.0, 18126.0, 18125.0, 18119.0, 18129.0, 18137.0, 18177.0, 18073.0, 18078.0, 18089.0, 18061.0, 18056.0, 18044.0, 18043.0, 18059.0, 18043.0, 18033.0, 18037.0, 18049.0, 18049.0, 18087.0, 18086.0, 18141.0, 18123.0, 17984.0, 18183.0, 18098.0, 18106.0, 18089.0, 18162.0, 18154.0, 18108.0, 18107.0, 18087.0, 18088.0, 18119.0, 18131.0, 18118.0, 18113.0, 18186.0, 18113.0, 18144.0, 18142.0, 18144.0, 18189.0, 18149.0, 18101.0, 18109.0, 18120.0, 18139.0, 18096.0, 18116.0, 18077.0, 18078.0, 18085.0, 18066.0, 18046.0, 18143.0, 18026.0, 18049.0, 18052.0, 18064.0, 18062.0, 18098.0, 18055.0, 18029.0, 18114.0, 18005.0, 18085.0, 18093.0, 18088.0, 18094.0, 18098.0, 18088.0, 18189.0, 18112.0, 18082.0, 18098.0, 18086.0, 18137.0, 18148.0, 18062.0, 18101.0, 18107.0, 18125.0, 18131.0, 18147.0, 18126.0, 18103.0, 18105.0, 18090.0, 18093.0, 18138.0, 18097.0, 18077.0, 18066.0, 18101.0, 18065.0, 18085.0, 18098.0, 18107.0, 18107.0, 18111.0, 18131.0, 18146.0, 18104.0, 18105.0, 18094.0, 18091.0, 18107.0, 18150.0, 18124.0, 18166.0, 18133.0, 18133.0, 18131.0, 18099.0, 18093.0, 18068.0, 18061.0, 18088.0]
    },
    "slices": {}
  },
  "NumberOfVolumes": 192
}