{
  "AcquisitionMatrixPE": 104,
  "AcquisitionNumber": 1,
  "AcquisitionTime": "10:24:32.130000",
  "BandwidthPerPixelPhaseEncode": 16.578,
  "BaseResolution": 104,
  "BodyPartExamined": "BRAIN",
  "ConsistencyInfo": "N4_VE11C_LATEST_20160120",
  "ConversionSoftware": "dcm2niix",
  "ConversionSoftwareVersion": "v1.0.20190902",
  "DerivedVendorReportedEchoSpacing": 0.000580009,
  "DeviceSerialNumber": "166018",
  "DwellTime": 2.1e-06,
  "EchoTime": 0.037,
  "EchoTrainLength": 104,
  "EffectiveEchoSpacing": 0.000580009,
  "FlipAngle": 68,
  "ImageComments": "Unaliased_MB6_PE3_LB",
  "ImageOrientationPatientDICOM": [0.993289, 0.109598, 0.036937, -0.0956429, 0.957967, -0.270464],
  "ImageType": [
    "ORIGINAL",
    "PRIMARY",
    "M",
    "MB",
    "ND",
    "MOSAIC"
],
  "ImagingFrequency": 123.191,
  "InPlanePhaseEncodingDirectionDICOM": "COL",
  "InstitutionAddress": "Washington_Place_6_NYC_NYC_US_10003",
  "InstitutionName": "NYU_-_CBI",
  "InstitutionalDepartmentName": "Department",
  "MRAcquisitionType": "2D",
  "MagneticFieldStrength": 3,
  "Manufacturer": "Siemens",
  "ManufacturersModelName": "Prisma",
  "Modality": "MR",
  "MultibandAccelerationFactor": 6,
  "PartialFourier": 1,
  "PatientPosition": "HFS",
  "PercentPhaseFOV": 100,
  "PhaseEncodingDirection": "j",
  "PhaseEncodingSteps": 104,
  "PhaseResolution": 1,
  "PixelBandwidth": 2290,
  "ProcedureStepDescription": "Investigators_Winawer",
  "ProtocolName": "cmrr_mbepi_s6_2mm_66sl_PA_task-prf",
  "PulseSequenceDetails": "%CustomerSeq%_cmrr_mbep2d_bold",
  "ReceiveCoilActiveElements": "HC1-7",
  "ReceiveCoilName": "HeadNeck_64",
  "ReconMatrixPE": 104,
  "RepetitionTime": 1,
  "SAR": 0.062376,
  "ScanOptions": "FS",
  "ScanningSequence": "EP",
  "SequenceName": "epfid2d1_104",
  "SequenceVariant": "SK_SS",
  "SeriesDescription": "cmrr_mbepi_s6_2mm_66sl_PA_task-prf",
  "SeriesNumber": 8,
  "ShimSetting": [272, -12573, -8445, 481, -12, -101, -67, -2],
  "SliceThickness": 2,
  "SliceTiming": [0, 0.535, 0.0875, 0.6225, 0.1775, 0.7125, 0.2675, 0.8, 0.355, 0.89, 0.445, 0, 0.535, 0.0875, 0.6225, 0.1775, 0.7125, 0.2675, 0.8, 0.355, 0.89, 0.445, 0, 0.535, 0.0875, 0.6225, 0.1775, 0.7125, 0.2675, 0.8, 0.355, 0.89, 0.445, 0, 0.535, 0.0875, 0.6225, 0.1775, 0.7125, 0.2675, 0.8, 0.355, 0.89, 0.445, 0, 0.535, 0.0875, 0.6225, 0.1775, 0.7125, 0.2675, 0.8, 0.355, 0.89, 0.445, 0, 0.535, 0.0875, 0.6225, 0.1775, 0.7125, 0.2675, 0.8, 0.355, 0.89, 0.445],
  "SoftwareVersions": "syngo_MR_E11",
  "SpacingBetweenSlices": 2,
  "StationName": "AWP166018",
  "TaskName": "prf",
  "TotalReadoutTime": 0.0597409,
  "TxRefAmp": 207.746,
  "WipMemBlock": "a6a7f098-c453-4aa7-b3b4-6b6e67c4d097||Sequence: R016 ve11c/master r/8780670; Nov 27 2017 15:05:12 by eja",
  "dcmmeta_affine": [
    [-1.9865789413452148, -0.19128571450710297, 0.13005344569683075, 119.66618347167969],
    [-0.21919570863246918, 1.9159349203109741, -0.5302327871322632, -47.2097282409668],
    [0.07387398928403854, 0.5409281849861145, 1.9240424633026123, -72.72578430175781],
    [0.0, 0.0, 0.0, 1.0]
],
  "dcmmeta_reorient_transform": [
    [0.0, -1.0, 0.0, 103.0],
    [1.0, 0.0, 0.0, 0.0],
    [0.0, 0.0, 1.0, 0.0],
    [0.0, 0.0, 0.0, 1.0]
],
  "dcmmeta_shape": [104, 104, 66, 192],
  "dcmmeta_slice_dim": 2,
  "dcmmeta_version": 0.6,
  "global": {
    "const": {
      "AccessionNumber": "JUK00BTQ",
      "AcquisitionMatrix": [104, 0, 0, 104],
      "AngioFlag": "N",
      "BitsAllocated": 16,
      "BitsStored": 16,
      "BodyPartExamined": "BRAIN",
      "Columns": 936,
      "EchoNumbers": 1,
      "EchoTime": 37.0,
      "EchoTrainLength": 104,
      "FlipAngle": 68.0,
      "HighBit": 15,
      "ImageOrientationPatient": [0.99328946855882, 0.10959785617072, 0.03693699463853, -0.0956428608861, 0.957967438371, -0.2704641014672],
      "ImagePositionPatient": [-846.80573146119, -1038.3458901661, 177.28437110658],
      "ImageType": [
        "ORIGINAL",
        "PRIMARY",
        "M",
        "MB",
        "ND",
        "MOSAIC"
],
      "ImagedNucleus": "1H",
      "ImagingFrequency": 123.191019,
      "InPlanePhaseEncodingDirection": "COL",
      "MRAcquisitionType": "2D",
      "MagneticFieldStrength": 3.0,
      "Manufacturer": "SIEMENS",
      "ManufacturerModelName": "Prisma",
      "Modality": "MR",
      "NumberOfAverages": 1.0,
      "NumberOfPhaseEncodingSteps": 104,
      "PercentPhaseFieldOfView": 100.0,
      "PercentSampling": 100.0,
      "PerformedProcedureStepStartTime": "101139.639000",
      "PhotometricInterpretation": "MONOCHROME2",
      "PixelBandwidth": 2290.0,
      "PixelRepresentation": 0,
      "PixelSpacing": [2.0, 2.0],
      "ProtocolName": "cmrr_mbepi_s6_2mm_66sl_PA_task-prf",
      "RepetitionTime": 1000.0,
      "Rows": 936,
      "SAR": 0.06237597445712,
      "SamplesPerPixel": 1,
      "ScanOptions": "FS",
      "ScanningSequence": "EP",
      "SequenceName": "epfid2d1_104",
      "SequenceVariant": [
        "SK",
        "SS"
],
      "SeriesDescription": "cmrr_mbepi_s6_2mm_66sl_PA_task-prf",
      "SeriesNumber": 8,
      "SeriesTime": "102528.862000",
      "SliceLocation": -49.666178043029,
      "SliceThickness": 2.0,
      "SmallestImagePixelValue": 0,
      "SoftwareVersions": "syngo MR E11",
      "SpacingBetweenSlices": 2.0000000699906,
      "SpecificCharacterSet": "ISO_IR 100",
      "StudyID": "1",
      "StudyTime": "101139.529000",
      "TransmitCoilName": "Body",
      "VariableFlipAngleFlag": "N",
      "WindowCenterWidthExplanation": "Algo1",
      "dBdt": 0.0},
    "slices": {}
  },
  "time": {
    "samples": {
      "AcquisitionNumber": [1, 2, 3, 4, 5, 6, 7, 8, 9, 10, 11, 12, 13, 14, 15, 16, 17, 18, 19, 20, 21, 22, 23, 24, 25, 26, 27, 28, 29, 30, 31, 32, 33, 34, 35, 36, 37, 38, 39, 40, 41, 42, 43, 44, 45, 46, 47, 48, 49, 50, 51, 52, 53, 54, 55, 56, 57, 58, 59, 60, 61, 62, 63, 64, 65, 66, 67, 68, 69, 70, 71, 72, 73, 74, 75, 76, 77, 78, 79, 80, 81, 82, 83, 84, 85, 86, 87, 88, 89, 90, 91, 92, 93, 94, 95, 96, 97, 98, 99, 100, 101, 102, 103, 104, 105, 106, 107, 108, 109, 110, 111, 112, 113, 114, 115, 116, 117, 118, 119, 120, 121, 122, 123, 124, 125, 126, 127, 128, 129, 130, 131, 132, 133, 134, 135, 136, 137, 138, 139, 140, 141, 142, 143, 144, 145, 146, 147, 148, 149, 150, 151, 152, 153, 154, 155, 156, 157, 158, 159, 160, 161, 162, 163, 164, 165, 166, 167, 168, 169, 170, 171, 172, 173, 174, 175, 176, 177, 178, 179, 180, 181, 182, 183, 184, 185, 186, 187, 188, 189, 190, 191, 192],
      "AcquisitionTime": ["102432.130000", "102433.130000", "102434.130000", "102435.130000", "102436.130000", "102437.130000", "102438.130000", "102439.130000", "102440.130000", "102441.130000", "102442.130000", "102443.130000", "102444.130000", "102445.130000", "102446.130000", "102447.130000", "102448.130000", "102449.130000", "102450.130000", "102451.130000", "102452.130000", "102453.130000", "102454.130000", "102455.130000", "102456.130000", "102457.130000", "102458.130000", "102459.130000", "102500.130000", "102501.130000", "102502.130000", "102503.130000", "102504.130000", "102505.130000", "102506.130000", "102507.130000", "102508.130000", "102509.130000", "102510.130000", "102511.130000", "102512.130000", "102513.130000", "102514.130000", "102515.130000", "102516.130000", "102517.130000", "102518.130000", "102519.130000", "102520.130000", "102521.130000", "102522.130000", "102523.130000", "102524.130000", "102525.130000", "102526.130000", "102527.130000", "102528.130000", "102529.130000", "102530.130000", "102531.130000", "102532.130000", "102533.130000", "102534.130000", "102535.130000", "102536.130000", "102537.130000", "102538.130000", "102539.130000", "102540.130000", "102541.130000", "102542.130000", "102543.130000", "102544.130000", "102545.130000", "102546.130000", "102547.130000", "102548.130000", "102549.130000", "102550.130000", "102551.130000", "102552.130000", "102553.130000", "102554.130000", "102555.130000", "102556.130000", "102557.130000", "102558.130000", "102559.130000", "102600.130000", "102601.130000", "102602.130000", "102603.130000", "102604.130000", "102605.130000", "102606.130000", "102607.130000", "102608.130000", "102609.130000", "102610.130000", "102611.130000", "102612.130000", "102613.130000", "102614.130000", "102615.130000", "102616.130000", "102617.130000", "102618.130000", "102619.130000", "102620.130000", "102621.130000", "102622.130000", "102623.130000", "102624.130000", "102625.130000", "102626.130000", "102627.130000", "102628.130000", "102629.130000", "102630.130000", "102631.130000", "102632.130000", "102633.130000", "102634.130000", "102635.130000", "102636.130000", "102637.130000", "102638.130000", "102639.130000", "102640.130000", "102641.130000", "102642.130000", "102643.130000", "102644.130000", "102645.130000", "102646.130000", "102647.130000", "102648.130000", "102649.130000", "102650.130000", "102651.130000", "102652.130000", "102653.130000", "102654.130000", "102655.130000", "102656.130000", "102657.130000", "102658.130000", "102659.130000", "102700.130000", "102701.130000", "102702.130000", "102703.130000", "102704.130000", "102705.130000", "102706.130000", "102707.130000", "102708.130000", "102709.130000", "102710.130000", "102711.130000", "102712.130000", "102713.130000", "102714.130000", "102715.130000", "102716.130000", "102717.130000", "102718.130000", "102719.130000", "102720.130000", "102721.130000", "102722.130000", "102723.130000", "102724.130000", "102725.130000", "102726.130000", "102727.130000", "102728.130000", "102729.130000", "102730.130000", "102731.130000", "102732.130000", "102733.130000", "102734.130000", "102735.130000", "102736.130000", "102737.130000", "102738.130000", "102739.130000", "102740.130000", "102741.130000", "102742.130000", "102743.130000"],
      "ContentTime": ["102528.865000", "102533.835000", "102533.855000", "102533.858000", "102533.861000", "102533.864000", "102533.871000", "102533.874000", "102538.834000", "102538.837000", "102538.840000", "102538.843000", "102538.846000", "102538.849000", "102538.852000", "102543.834000", "102543.837000", "102543.840000", "102543.843000", "102543.853000", "102543.856000", "102543.860000", "102548.835000", "102548.838000", "102548.841000", "102548.844000", "102548.855000", "102548.858000", "102548.861000", "102553.834000", "102553.837000", "102553.840000", "102553.843000", "102553.846000", "102553.849000", "102553.852000", "102558.834000", "102558.859000", "102558.862000", "102558.865000", "102558.868000", "102558.871000", "102558.874000", "102558.877000", "102603.835000", "102603.838000", "102603.841000", "102603.844000", "102603.847000", "102603.850000", "102603.853000", "102608.835000", "102608.842000", "102608.845000", "102608.848000", "102608.851000", "102608.854000", "102608.857000", "102613.835000", "102613.839000", "102613.847000", "102613.850000", "102613.853000", "102613.856000", "102613.859000", "102618.834000", "102618.837000", "102618.840000", "102618.843000", "102618.846000", "102618.849000", "102618.852000", "102623.835000", "102623.838000", "102623.841000", "102623.844000", "102623.847000", "102623.850000", "102623.853000", "102628.834000", "102628.837000", "102628.840000", "102628.843000", "102628.846000", "102628.849000", "102628.852000", "102633.834000", "102633.837000", "102633.840000", "102633.843000", "102633.846000", "102633.849000", "102633.852000", "102638.835000", "102638.838000", "102638.841000", "102638.844000", "102638.847000", "102638.850000", "102638.853000", "102643.835000", "102643.838000", "102643.841000", "102643.844000", "102643.847000", "102643.850000", "102643.853000", "102648.834000", "102648.837000", "102648.840000", "102648.843000", "102648.846000", "102648.849000", "102648.852000", "102653.834000", "102653.837000", "102653.840000", "102653.843000", "102653.846000", "102653.849000", "102653.852000", "102658.835000", "102658.838000", "102658.841000", "102658.844000", "102658.847000", "102658.850000", "102658.853000", "102703.834000", "102703.837000", "102703.840000", "102703.843000", "102703.846000", "102703.849000", "102703.852000", "102708.834000", "102708.837000", "102708.840000", "102708.843000", "102708.846000", "102708.849000", "102708.852000", "102713.835000", "102713.838000", "102713.841000", "102713.844000", "102713.847000", "102713.850000", "102713.853000", "102713.856000", "102718.835000", "102718.838000", "102718.841000", "102718.844000", "102718.847000", "102718.850000", "102718.853000", "102723.834000", "102723.837000", "102723.840000", "102723.843000", "102723.846000", "102723.849000", "102723.852000", "102728.834000", "102728.837000", "102728.840000", "102728.843000", "102728.846000", "102728.849000", "102728.852000", "102733.835000", "102733.852000", "102733.855000", "102733.858000", "102733.861000", "102733.864000", "102733.867000", "102738.834000", "102738.837000", "102738.840000", "102738.843000", "102738.846000", "102738.849000", "102738.852000", "102744.761000", "102744.764000", "102744.767000", "102744.770000", "102744.783000", "102744.786000", "102744.789000"],
      "InstanceCreationTime": ["102528.865000", "102533.835000", "102533.855000", "102533.858000", "102533.861000", "102533.864000", "102533.871000", "102533.874000", "102538.834000", "102538.837000", "102538.840000", "102538.843000", "102538.846000", "102538.849000", "102538.852000", "102543.834000", "102543.837000", "102543.840000", "102543.843000", "102543.853000", "102543.856000", "102543.860000", "102548.835000", "102548.838000", "102548.841000", "102548.844000", "102548.855000", "102548.858000", "102548.861000", "102553.834000", "102553.837000", "102553.840000", "102553.843000", "102553.846000", "102553.849000", "102553.852000", "102558.834000", "102558.859000", "102558.862000", "102558.865000", "102558.868000", "102558.871000", "102558.874000", "102558.877000", "102603.835000", "102603.838000", "102603.841000", "102603.844000", "102603.847000", "102603.850000", "102603.853000", "102608.835000", "102608.842000", "102608.845000", "102608.848000", "102608.851000", "102608.854000", "102608.857000", "102613.835000", "102613.839000", "102613.847000", "102613.850000", "102613.853000", "102613.856000", "102613.859000", "102618.834000", "102618.837000", "102618.840000", "102618.843000", "102618.846000", "102618.849000", "102618.852000", "102623.835000", "102623.838000", "102623.841000", "102623.844000", "102623.847000", "102623.850000", "102623.853000", "102628.834000", "102628.837000", "102628.840000", "102628.843000", "102628.846000", "102628.849000", "102628.852000", "102633.834000", "102633.837000", "102633.840000", "102633.843000", "102633.846000", "102633.849000", "102633.852000", "102638.835000", "102638.838000", "102638.841000", "102638.844000", "102638.847000", "102638.850000", "102638.853000", "102643.835000", "102643.838000", "102643.841000", "102643.844000", "102643.847000", "102643.850000", "102643.853000", "102648.834000", "102648.837000", "102648.840000", "102648.843000", "102648.846000", "102648.849000", "102648.852000", "102653.834000", "102653.837000", "102653.840000", "102653.843000", "102653.846000", "102653.849000", "102653.852000", "102658.835000", "102658.838000", "102658.841000", "102658.844000", "102658.847000", "102658.850000", "102658.853000", "102703.834000", "102703.837000", "102703.840000", "102703.843000", "102703.846000", "102703.849000", "102703.852000", "102708.834000", "102708.837000", "102708.840000", "102708.843000", "102708.846000", "102708.849000", "102708.852000", "102713.835000", "102713.838000", "102713.841000", "102713.844000", "102713.847000", "102713.850000", "102713.853000", "102713.856000", "102718.835000", "102718.838000", "102718.841000", "102718.844000", "102718.847000", "102718.850000", "102718.853000", "102723.834000", "102723.837000", "102723.840000", "102723.843000", "102723.846000", "102723.849000", "102723.852000", "102728.834000", "102728.837000", "102728.840000", "102728.843000", "102728.846000", "102728.849000", "102728.852000", "102733.835000", "102733.852000", "102733.855000", "102733.858000", "102733.861000", "102733.864000", "102733.867000", "102738.834000", "102738.837000", "102738.840000", "102738.843000", "102738.846000", "102738.849000", "102738.852000", "102744.761000", "102744.764000", "102744.767000", "102744.770000", "102744.783000", "102744.786000", "102744.789000"],
      "InstanceNumber": [1, 2, 3, 4, 5, 6, 7, 8, 9, 10, 11, 12, 13, 14, 15, 16, 17, 18, 19, 20, 21, 22, 23, 24, 25, 26, 27, 28, 29, 30, 31, 32, 33, 34, 35, 36, 37, 38, 39, 40, 41, 42, 43, 44, 45, 46, 47, 48, 49, 50, 51, 52, 53, 54, 55, 56, 57, 58, 59, 60, 61, 62, 63, 64, 65, 66, 67, 68, 69, 70, 71, 72, 73, 74, 75, 76, 77, 78, 79, 80, 81, 82, 83, 84, 85, 86, 87, 88, 89, 90, 91, 92, 93, 94, 95, 96, 97, 98, 99, 100, 101, 102, 103, 104, 105, 106, 107, 108, 109, 110, 111, 112, 113, 114, 115, 116, 117, 118, 119, 120, 121, 122, 123, 124, 125, 126, 127, 128, 129, 130, 131, 132, 133, 134, 135, 136, 137, 138, 139, 140, 141, 142, 143, 144, 145, 146, 147, 148, 149, 150, 151, 152, 153, 154, 155, 156, 157, 158, 159, 160, 161, 162, 163, 164, 165, 166, 167, 168, 169, 170, 171, 172, 173, 174, 175, 176, 177, 178, 179, 180, 181, 182, 183, 184, 185, 186, 187, 188, 189, 190, 191, 192],
      "LargestImagePixelValue": [40667, 39430, 39064, 38277, 37978, 38478, 37955, 38047, 38223, 38371, 38186, 37957, 37866, 38097, 38152, 38072, 38020, 37929, 38158, 37798, 37575, 38201, 37977, 37495, 38034, 38036, 37896, 37992, 38445, 38395, 38007, 37814, 37721, 38070, 37804, 37590, 38183, 37986, 38213, 37613, 37808, 37624, 38047, 37807, 38351, 38252, 38116, 37584, 38380, 38007, 38112, 37564, 38066, 38390, 37854, 37757, 38083, 38649, 38142, 38488, 38846, 37865, 38303, 38994, 38294, 38876, 38440, 39006, 38803, 38650, 38284, 38519, 38855, 38642, 39361, 39516, 38921, 38904, 39064, 38738, 39556, 39470, 39332, 38866, 39245, 39894, 39575, 39179, 38716, 39594, 39314, 40238, 38969, 39044, 39646, 39059, 39095, 39576, 39265, 39666, 39146, 39049, 39498, 39765, 39294, 39921, 39950, 39322, 38730, 38867, 39176, 39524, 39456, 39460, 39717, 39186, 38900, 39188, 39232, 39236, 39367, 39469, 39339, 39602, 39110, 39354, 39660, 39197, 39645, 40112, 39117, 39616, 39641, 39421, 38756, 39653, 39293, 39171, 39748, 39004, 39382, 39328, 38582, 38389, 38956, 38542, 39051, 39224, 39203, 39397, 38826, 38808, 38895, 38700, 38792, 38442, 38379, 38715, 39120, 38395, 38319, 39101, 38545, 39021, 38916, 38623, 37981, 38266, 39830, 37795, 37501, 37345, 38184, 39118, 38074, 38515, 39012, 39017, 38787, 38345, 38579, 38215, 38407, 38941, 37990, 38462, 38787, 38317, 38102, 38720, 37934, 37530],
      "WindowCenter": [9433.0, 9399.0, 9389.0, 9398.0, 9402.0, 9411.0, 9408.0, 9406.0, 9398.0, 9405.0, 9397.0, 9396.0, 9396.0, 9396.0, 9396.0, 9397.0, 9396.0, 9402.0, 9396.0, 9388.0, 9373.0, 9386.0, 9385.0, 9380.0, 9393.0, 9394.0, 9386.0, 9384.0, 9391.0, 9384.0, 9378.0, 9384.0, 9380.0, 9394.0, 9389.0, 9389.0, 9396.0, 9395.0, 9395.0, 9402.0, 9396.0, 9390.0, 9396.0, 9380.0, 9391.0, 9399.0, 9385.0, 9378.0, 9382.0, 9368.0, 9366.0, 9363.0, 9375.0, 9382.0, 9372.0, 9371.0, 9376.0, 9389.0, 9386.0, 9392.0, 9392.0, 9371.0, 9375.0, 9388.0, 9383.0, 9390.0, 9392.0, 9396.0, 9390.0, 9391.0, 9392.0, 9395.0, 9403.0, 9394.0, 9392.0, 9389.0, 9380.0, 9372.0, 9372.0, 9365.0, 9376.0, 9378.0, 9386.0, 9380.0, 9386.0, 9392.0, 9394.0, 9400.0, 9415.0, 9422.0, 9408.0, 9413.0, 9399.0, 9397.0, 9402.0, 9388.0, 9381.0, 9387.0, 9379.0, 9385.0, 9382.0, 9391.0, 9404.0, 9413.0, 9407.0, 9420.0, 9423.0, 9409.0, 9394.0, 9392.0, 9390.0, 9404.0, 9398.0, 9391.0, 9397.0, 9376.0, 9373.0, 9372.0, 9364.0, 9363.0, 9370.0, 9372.0, 9372.0, 9379.0, 9372.0, 9371.0, 9370.0, 9356.0, 9368.0, 9369.0, 9362.0, 9368.0, 9369.0, 9377.0, 9375.0, 9396.0, 9397.0, 9391.0, 9388.0, 9378.0, 9364.0, 9371.0, 9358.0, 9352.0, 9370.0, 9360.0, 9372.0, 9378.0, 9371.0, 9373.0, 9374.0, 9377.0, 9390.0, 9390.0, 9376.0, 9369.0, 9359.0, 9356.0, 9363.0, 9363.0, 9360.0, 9373.0, 9367.0, 9373.0, 9380.0, 9380.0, 9370.0, 9383.0, 9392.0, 9369.0, 9363.0, 9352.0, 9348.0, 9361.0, 9349.0, 9341.0, 9337.0, 9326.0, 9311.0, 9310.0, 9317.0, 9317.0, 9328.0, 9346.0, 9357.0, 9367.0, 9376.0, 9377.0, 9381.0, 9397.0, 9390.0, 9378.0],
      "WindowWidth": [20059.0, 19977.0, 19950.0, 19971.0, 19983.0, 20005.0, 20005.0, 19996.0, 19980.0, 19991.0, 19975.0, 19972.0, 19972.0, 19971.0, 19973.0, 19975.0, 19970.0, 19979.0, 19967.0, 19948.0, 19922.0, 19944.0, 19942.0, 19934.0, 19961.0, 19963.0, 19944.0, 19938.0, 19954.0, 19940.0, 19930.0, 19942.0, 19937.0, 19963.0, 19958.0, 19959.0, 19970.0, 19967.0, 19967.0, 19981.0, 19971.0, 19959.0, 19969.0, 19936.0, 19955.0, 19971.0, 19943.0, 19929.0, 19935.0, 19904.0, 19896.0, 19896.0, 19921.0, 19935.0, 19920.0, 19916.0, 19924.0, 19947.0, 19945.0, 19957.0, 19953.0, 19915.0, 19921.0, 19944.0, 19939.0, 19954.0, 19959.0, 19965.0, 19952.0, 19952.0, 19957.0, 19968.0, 19981.0, 19964.0, 19954.0, 19941.0, 19921.0, 19908.0, 19907.0, 19893.0, 19912.0, 19921.0, 19935.0, 19926.0, 19937.0, 19950.0, 19955.0, 19978.0, 20008.0, 20020.0, 19990.0, 19996.0, 19968.0, 19961.0, 19969.0, 19941.0, 19931.0, 19937.0, 19921.0, 19932.0, 19930.0, 19952.0, 19982.0, 19999.0, 19988.0, 20014.0, 20021.0, 19991.0, 19959.0, 19952.0, 19949.0, 19976.0, 19963.0, 19952.0, 19962.0, 19921.0, 19913.0, 19906.0, 19887.0, 19886.0, 19902.0, 19907.0, 19911.0, 19921.0, 19909.0, 19906.0, 19903.0, 19874.0, 19898.0, 19897.0, 19883.0, 19892.0, 19895.0, 19913.0, 19916.0, 19956.0, 19963.0, 19953.0, 19944.0, 19919.0, 19891.0, 19903.0, 19881.0, 19873.0, 19908.0, 19893.0, 19910.0, 19921.0, 19906.0, 19914.0, 19920.0, 19927.0, 19952.0, 19952.0, 19921.0, 19902.0, 19879.0, 19873.0, 19884.0, 19884.0, 19885.0, 19911.0, 19903.0, 19909.0, 19923.0, 19925.0, 19910.0, 19934.0, 19940.0, 19907.0, 19894.0, 19869.0, 19857.0, 19881.0, 19860.0, 19841.0, 19825.0, 19799.0, 19769.0, 19766.0, 19783.0, 19787.0, 19813.0, 19851.0, 19881.0, 19906.0, 19926.0, 19932.0, 19945.0, 19976.0, 19960.0, 19942.0]
    },
    "slices": {}
  },
  "NumberOfVolumes": 192
}