{
  "aor": 0.0006890104166666667,
  "aqi": 0.008064626406249999,
  "bids_meta": {
    "AcquisitionMatrixPE": 104,
    "AcquisitionNumber": 1,
    "AcquisitionTime": "17:03:33.515000",
    "BandwidthPerPixelPhaseEncode": 16.578,
    "BaseResolution": 104,
    "BodyPartExamined": "BRAIN",
    "CogAtlasID": "TODO",
    "ConsistencyInfo": "N4_VE11C_LATEST_20160120",
    "ConversionSoftware": "dcm2niix",
    "ConversionSoftwareVersion": "v1.0.20190902",
    "DerivedVendorReportedEchoSpacing": 0.000580009,
    "DeviceSerialNumber": "166018",
    "DwellTime": 2.1e-06,
    "EchoTime": 0.037,
    "EchoTrainLength": 104,
    "EffectiveEchoSpacing": 0.000580009,
    "FlipAngle": 68,
    "ImageComments": "Unaliased_MB6_PE3_LB",
    "ImageOrientationPatientDICOM": [
      0.997542,
      -0.0458307,
      0.0529967,
      0.0571685,
      0.969709,
      -0.237478
    ],
    "ImageType": [
      "ORIGINAL",
      "PRIMARY",
      "M",
      "MB",
      "ND",
      "MOSAIC"
    ],
    "ImagingFrequency": 123.191,
    "InPlanePhaseEncodingDirectionDICOM": "COL",
    "InstitutionAddress": "Washington_Place_6_NYC_NYC_US_10003",
    "InstitutionName": "NYU_-_CBI",
    "InstitutionalDepartmentName": "Department",
    "MRAcquisitionType": "2D",
    "MagneticFieldStrength": 3,
    "Manufacturer": "Siemens",
    "ManufacturersModelName": "Prisma",
    "Modality": "MR",
    "MultibandAccelerationFactor": 6,
    "NumberOfVolumes": 192,
    "PartialFourier": 1,
    "PatientPosition": "HFS",
    "PercentPhaseFOV": 100,
    "PhaseEncodingDirection": "j",
    "PhaseEncodingSteps": 104,
    "PhaseResolution": 1,
    "PixelBandwidth": 2290,
    "ProcedureStepDescription": "Investigators_Winawer",
    "ProtocolName": "cmrr_mbepi_s6_2mm_66sl_PA_TR1.0",
    "PulseSequenceDetails": "%CustomerSeq%_cmrr_mbep2d_bold",
    "ReceiveCoilActiveElements": "HC1-7",
    "ReceiveCoilName": "HeadNeck_64",
    "ReconMatrixPE": 104,
    "RepetitionTime": 1,
    "SAR": 0.0800726,
    "ScanOptions": "FS",
    "ScanningSequence": "EP",
    "SequenceName": "epfid2d1_104",
    "SequenceVariant": "SK_SS",
    "SeriesDescription": "cmrr_mbepi_s6_2mm_66sl_PA_TR1.0",
    "SeriesNumber": 18,
    "ShimSetting": [
      253,
      -12564,
      -8485,
      467,
      -12,
      -184,
      -35,
      8
    ],
    "SliceThickness": 2,
    "SliceTiming": [
      0,
      0.535,
      0.09,
      0.6225,
      0.1775,
      0.7125,
      0.2675,
      0.8025,
      0.3575,
      0.89,
      0.445,
      0,
      0.535,
      0.09,
      0.6225,
      0.1775,
      0.7125,
      0.2675,
      0.8025,
      0.3575,
      0.89,
      0.445,
      0,
      0.535,
      0.09,
      0.6225,
      0.1775,
      0.7125,
      0.2675,
      0.8025,
      0.3575,
      0.89,
      0.445,
      0,
      0.535,
      0.09,
      0.6225,
      0.1775,
      0.7125,
      0.2675,
      0.8025,
      0.3575,
      0.89,
      0.445,
      0,
      0.535,
      0.09,
      0.6225,
      0.1775,
      0.7125,
      0.2675,
      0.8025,
      0.3575,
      0.89,
      0.445,
      0,
      0.535,
      0.09,
      0.6225,
      0.1775,
      0.7125,
      0.2675,
      0.8025,
      0.3575,
      0.89,
      0.445
    ],
    "SoftwareVersions": "syngo_MR_E11",
    "SpacingBetweenSlices": 2,
    "StationName": "AWP166018",
    "TaskName": "prf",
    "TotalReadoutTime": 0.0597409,
    "TxRefAmp": 250.804,
    "WipMemBlock": "ee634ab6-942a-4b10-b12b-f84276b4ac44||Sequence: ve11c/master r/ab69a6c; Apr 19 2017 09:47:47 by eja",
    "acq_id": "PA",
    "dataset": "unknown",
    "dcmmeta_affine": [
      [
        -1.9950848817825317,
        0.1143370270729065,
        0.08101527392864227,
        105.4575424194336
      ],
      [
        0.0916614681482315,
        1.9394186735153198,
        -0.4798473119735718,
        -70.46788787841797
      ],
      [
        0.10599342733621597,
        0.4749550521373749,
        1.9398925304412842,
        -82.23838806152344
      ],
      [
        0.0,
        0.0,
        0.0,
        1.0
      ]
    ],
    "dcmmeta_reorient_transform": [
      [
        0.0,
        -1.0,
        0.0,
        103.0
      ],
      [
        1.0,
        0.0,
        0.0,
        0.0
      ],
      [
        0.0,
        0.0,
        1.0,
        0.0
      ],
      [
        0.0,
        0.0,
        0.0,
        1.0
      ]
    ],
    "dcmmeta_shape": [
      104,
      104,
      66,
      192
    ],
    "dcmmeta_slice_dim": 2,
    "dcmmeta_version": 0.6,
    "global": {
      "const": {
        "AccessionNumber": "j6wfq5gm",
        "AcquisitionMatrix": [
          104,
          0,
          0,
          104
        ],
        "AngioFlag": "N",
        "BitsAllocated": 16,
        "BitsStored": 16,
        "BodyPartExamined": "BRAIN",
        "Columns": 936,
        "EchoNumbers": 1,
        "EchoTime": 37.0,
        "EchoTrainLength": 104,
        "FlipAngle": 68.0,
        "HighBit": 15,
        "ImageOrientationPatient": [
          0.99754242629366,
          -0.0458307346607,
          0.05299671220584,
          0.05716851489868,
          0.96970933081106,
          -0.2374775244991
        ],
        "ImagePositionPatient": [
          -994.75375629416,
          -897.95922448674,
          120.17001961562
        ],
        "ImageType": [
          "ORIGINAL",
          "PRIMARY",
          "M",
          "MB",
          "ND",
          "MOSAIC"
        ],
        "ImagedNucleus": "1H",
        "ImagingFrequency": 123.19134,
        "InPlanePhaseEncodingDirection": "COL",
        "MRAcquisitionType": "2D",
        "MagneticFieldStrength": 3.0,
        "Manufacturer": "SIEMENS",
        "ManufacturerModelName": "Prisma",
        "Modality": "MR",
        "NumberOfAverages": 1.0,
        "NumberOfPhaseEncodingSteps": 104,
        "PercentPhaseFieldOfView": 100.0,
        "PercentSampling": 100.0,
        "PerformedProcedureStepStartTime": "164024.304000",
        "PhotometricInterpretation": "MONOCHROME2",
        "PixelBandwidth": 2290.0,
        "PixelRepresentation": 0,
        "PixelSpacing": [
          2.0,
          2.0
        ],
        "ProtocolName": "cmrr_mbepi_s6_2mm_66sl_PA_TR1.0",
        "RepetitionTime": 1000.0,
        "Rows": 936,
        "SAR": 0.08007259547669,
        "SamplesPerPixel": 1,
        "ScanOptions": "FS",
        "ScanningSequence": "EP",
        "SequenceName": "epfid2d1_104",
        "SequenceVariant": [
          "SK",
          "SS"
        ],
        "SeriesDescription": "cmrr_mbepi_s6_2mm_66sl_PA_TR1.0",
        "SeriesNumber": 18,
        "SeriesTime": "170455.195000",
        "SliceLocation": -58.588067354977,
        "SliceThickness": 2.0,
        "SmallestImagePixelValue": 0,
        "SoftwareVersions": "syngo MR E11",
        "SpacingBetweenSlices": 2.0000000254267,
        "SpecificCharacterSet": "ISO_IR 100",
        "StudyID": "1",
        "StudyTime": "164024.247000",
        "TransmitCoilName": "Body",
        "VariableFlipAngleFlag": "N",
        "WindowCenterWidthExplanation": "Algo1",
        "dBdt": 0.0
      },
      "slices": {}
    },
    "modality": "bold",
    "run_id": 6,
    "session_id": "nyu3t01",
    "subject_id": "wlsubj004",
    "task_id": "prf",
    "time": {
      "samples": {
        "AcquisitionNumber": [
          1,
          2,
          3,
          4,
          5,
          6,
          7,
          8,
          9,
          10,
          11,
          12,
          13,
          14,
          15,
          16,
          17,
          18,
          19,
          20,
          21,
          22,
          23,
          24,
          25,
          26,
          27,
          28,
          29,
          30,
          31,
          32,
          33,
          34,
          35,
          36,
          37,
          38,
          39,
          40,
          41,
          42,
          43,
          44,
          45,
          46,
          47,
          48,
          49,
          50,
          51,
          52,
          53,
          54,
          55,
          56,
          57,
          58,
          59,
          60,
          61,
          62,
          63,
          64,
          65,
          66,
          67,
          68,
          69,
          70,
          71,
          72,
          73,
          74,
          75,
          76,
          77,
          78,
          79,
          80,
          81,
          82,
          83,
          84,
          85,
          86,
          87,
          88,
          89,
          90,
          91,
          92,
          93,
          94,
          95,
          96,
          97,
          98,
          99,
          100,
          101,
          102,
          103,
          104,
          105,
          106,
          107,
          108,
          109,
          110,
          111,
          112,
          113,
          114,
          115,
          116,
          117,
          118,
          119,
          120,
          121,
          122,
          123,
          124,
          125,
          126,
          127,
          128,
          129,
          130,
          131,
          132,
          133,
          134,
          135,
          136,
          137,
          138,
          139,
          140,
          141,
          142,
          143,
          144,
          145,
          146,
          147,
          148,
          149,
          150,
          151,
          152,
          153,
          154,
          155,
          156,
          157,
          158,
          159,
          160,
          161,
          162,
          163,
          164,
          165,
          166,
          167,
          168,
          169,
          170,
          171,
          172,
          173,
          174,
          175,
          176,
          177,
          178,
          179,
          180,
          181,
          182,
          183,
          184,
          185,
          186,
          187,
          188,
          189,
          190,
          191,
          192
        ],
        "AcquisitionTime": [
          "170333.515000",
          "170334.515000",
          "170335.515000",
          "170336.515000",
          "170337.515000",
          "170338.515000",
          "170339.515000",
          "170340.515000",
          "170341.515000",
          "170342.515000",
          "170343.515000",
          "170344.515000",
          "170345.515000",
          "170346.515000",
          "170347.515000",
          "170348.515000",
          "170349.515000",
          "170350.515000",
          "170351.515000",
          "170352.515000",
          "170353.515000",
          "170354.515000",
          "170355.515000",
          "170356.515000",
          "170357.515000",
          "170358.515000",
          "170359.515000",
          "170400.515000",
          "170401.515000",
          "170402.515000",
          "170403.515000",
          "170404.515000",
          "170405.515000",
          "170406.515000",
          "170407.515000",
          "170408.515000",
          "170409.515000",
          "170410.515000",
          "170411.515000",
          "170412.515000",
          "170413.515000",
          "170414.515000",
          "170415.515000",
          "170416.515000",
          "170417.515000",
          "170418.515000",
          "170419.515000",
          "170420.515000",
          "170421.515000",
          "170422.515000",
          "170423.515000",
          "170424.515000",
          "170425.515000",
          "170426.515000",
          "170427.515000",
          "170428.515000",
          "170429.515000",
          "170430.515000",
          "170431.515000",
          "170432.515000",
          "170433.515000",
          "170434.515000",
          "170435.515000",
          "170436.515000",
          "170437.515000",
          "170438.515000",
          "170439.515000",
          "170440.515000",
          "170441.515000",
          "170442.515000",
          "170443.515000",
          "170444.515000",
          "170445.515000",
          "170446.515000",
          "170447.515000",
          "170448.515000",
          "170449.515000",
          "170450.515000",
          "170451.515000",
          "170452.515000",
          "170453.515000",
          "170454.515000",
          "170455.515000",
          "170456.515000",
          "170457.515000",
          "170458.515000",
          "170459.515000",
          "170500.515000",
          "170501.515000",
          "170502.515000",
          "170503.515000",
          "170504.515000",
          "170505.515000",
          "170506.515000",
          "170507.515000",
          "170508.515000",
          "170509.515000",
          "170510.515000",
          "170511.515000",
          "170512.515000",
          "170513.515000",
          "170514.515000",
          "170515.515000",
          "170516.515000",
          "170517.515000",
          "170518.515000",
          "170519.515000",
          "170520.515000",
          "170521.515000",
          "170522.515000",
          "170523.515000",
          "170524.515000",
          "170525.515000",
          "170526.515000",
          "170527.515000",
          "170528.515000",
          "170529.515000",
          "170530.515000",
          "170531.515000",
          "170532.515000",
          "170533.515000",
          "170534.515000",
          "170535.515000",
          "170536.515000",
          "170537.515000",
          "170538.515000",
          "170539.515000",
          "170540.515000",
          "170541.515000",
          "170542.515000",
          "170543.515000",
          "170544.515000",
          "170545.515000",
          "170546.515000",
          "170547.515000",
          "170548.515000",
          "170549.515000",
          "170550.515000",
          "170551.515000",
          "170552.515000",
          "170553.515000",
          "170554.515000",
          "170555.515000",
          "170556.515000",
          "170557.515000",
          "170558.515000",
          "170559.515000",
          "170600.515000",
          "170601.515000",
          "170602.515000",
          "170603.515000",
          "170604.515000",
          "170605.515000",
          "170606.515000",
          "170607.515000",
          "170608.515000",
          "170609.515000",
          "170610.515000",
          "170611.515000",
          "170612.515000",
          "170613.515000",
          "170614.515000",
          "170615.515000",
          "170616.515000",
          "170617.515000",
          "170618.515000",
          "170619.515000",
          "170620.515000",
          "170621.515000",
          "170622.515000",
          "170623.515000",
          "170624.515000",
          "170625.515000",
          "170626.515000",
          "170627.515000",
          "170628.515000",
          "170629.515000",
          "170630.515000",
          "170631.515000",
          "170632.515000",
          "170633.515000",
          "170634.515000",
          "170635.515000",
          "170636.515000",
          "170637.515000",
          "170638.515000",
          "170639.515000",
          "170640.515000",
          "170641.515000",
          "170642.515000",
          "170643.515000",
          "170644.515000"
        ],
        "ContentTime": [
          "170455.198000",
          "170455.201000",
          "170455.204000",
          "170455.207000",
          "170455.210000",
          "170455.213000",
          "170455.216000",
          "170455.219000",
          "170455.222000",
          "170455.225000",
          "170455.233000",
          "170455.236000",
          "170455.239000",
          "170455.242000",
          "170455.245000",
          "170455.248000",
          "170455.251000",
          "170455.253000",
          "170455.256000",
          "170455.260000",
          "170455.268000",
          "170455.271000",
          "170455.274000",
          "170455.277000",
          "170455.280000",
          "170455.283000",
          "170455.286000",
          "170455.289000",
          "170455.292000",
          "170455.295000",
          "170455.297000",
          "170455.300000",
          "170455.303000",
          "170455.306000",
          "170455.309000",
          "170515.161000",
          "170515.164000",
          "170515.167000",
          "170515.170000",
          "170515.173000",
          "170515.176000",
          "170515.179000",
          "170515.182000",
          "170515.195000",
          "170515.198000",
          "170515.201000",
          "170515.204000",
          "170515.207000",
          "170515.210000",
          "170515.213000",
          "170515.216000",
          "170515.219000",
          "170515.222000",
          "170515.225000",
          "170515.228000",
          "170515.231000",
          "170515.235000",
          "170515.238000",
          "170515.241000",
          "170515.244000",
          "170515.247000",
          "170515.250000",
          "170515.253000",
          "170515.256000",
          "170535.161000",
          "170535.164000",
          "170535.167000",
          "170535.170000",
          "170535.173000",
          "170535.176000",
          "170535.179000",
          "170535.182000",
          "170535.185000",
          "170535.188000",
          "170535.191000",
          "170535.194000",
          "170535.197000",
          "170535.200000",
          "170535.203000",
          "170535.206000",
          "170535.209000",
          "170535.212000",
          "170535.215000",
          "170535.218000",
          "170535.221000",
          "170535.224000",
          "170535.227000",
          "170535.230000",
          "170535.233000",
          "170535.236000",
          "170535.239000",
          "170535.242000",
          "170555.161000",
          "170555.164000",
          "170555.174000",
          "170555.176000",
          "170555.179000",
          "170555.182000",
          "170555.185000",
          "170555.188000",
          "170555.191000",
          "170555.194000",
          "170555.197000",
          "170555.200000",
          "170555.203000",
          "170555.206000",
          "170555.209000",
          "170555.212000",
          "170555.215000",
          "170555.218000",
          "170555.221000",
          "170555.224000",
          "170555.227000",
          "170555.230000",
          "170555.233000",
          "170555.236000",
          "170555.239000",
          "170555.242000",
          "170555.245000",
          "170555.248000",
          "170615.161000",
          "170615.164000",
          "170615.167000",
          "170615.170000",
          "170615.173000",
          "170615.176000",
          "170615.179000",
          "170615.182000",
          "170615.185000",
          "170615.188000",
          "170615.191000",
          "170615.194000",
          "170615.197000",
          "170615.200000",
          "170615.203000",
          "170615.206000",
          "170615.209000",
          "170615.212000",
          "170615.215000",
          "170615.218000",
          "170615.221000",
          "170615.224000",
          "170615.227000",
          "170615.230000",
          "170615.233000",
          "170615.236000",
          "170615.239000",
          "170615.242000",
          "170615.245000",
          "170635.161000",
          "170635.164000",
          "170635.167000",
          "170635.170000",
          "170635.173000",
          "170635.176000",
          "170635.179000",
          "170635.182000",
          "170635.185000",
          "170635.188000",
          "170635.191000",
          "170635.194000",
          "170635.197000",
          "170635.200000",
          "170635.203000",
          "170635.206000",
          "170635.209000",
          "170635.212000",
          "170635.215000",
          "170635.218000",
          "170635.221000",
          "170635.224000",
          "170635.226000",
          "170635.230000",
          "170635.243000",
          "170635.246000",
          "170635.249000",
          "170635.252000",
          "170646.102000",
          "170646.105000",
          "170646.108000",
          "170646.111000",
          "170646.114000",
          "170646.117000",
          "170646.120000",
          "170646.123000",
          "170646.126000",
          "170646.135000",
          "170646.138000",
          "170646.141000",
          "170646.144000",
          "170646.147000",
          "170646.150000"
        ],
        "InstanceCreationTime": [
          "170455.198000",
          "170455.201000",
          "170455.204000",
          "170455.207000",
          "170455.210000",
          "170455.213000",
          "170455.216000",
          "170455.219000",
          "170455.222000",
          "170455.225000",
          "170455.233000",
          "170455.236000",
          "170455.239000",
          "170455.242000",
          "170455.245000",
          "170455.248000",
          "170455.251000",
          "170455.253000",
          "170455.256000",
          "170455.260000",
          "170455.268000",
          "170455.271000",
          "170455.274000",
          "170455.277000",
          "170455.280000",
          "170455.283000",
          "170455.286000",
          "170455.289000",
          "170455.292000",
          "170455.295000",
          "170455.297000",
          "170455.300000",
          "170455.303000",
          "170455.306000",
          "170455.309000",
          "170515.161000",
          "170515.164000",
          "170515.167000",
          "170515.170000",
          "170515.173000",
          "170515.176000",
          "170515.179000",
          "170515.182000",
          "170515.195000",
          "170515.198000",
          "170515.201000",
          "170515.204000",
          "170515.207000",
          "170515.210000",
          "170515.213000",
          "170515.216000",
          "170515.219000",
          "170515.222000",
          "170515.225000",
          "170515.228000",
          "170515.231000",
          "170515.235000",
          "170515.238000",
          "170515.241000",
          "170515.244000",
          "170515.247000",
          "170515.250000",
          "170515.253000",
          "170515.256000",
          "170535.161000",
          "170535.164000",
          "170535.167000",
          "170535.170000",
          "170535.173000",
          "170535.176000",
          "170535.179000",
          "170535.182000",
          "170535.185000",
          "170535.188000",
          "170535.191000",
          "170535.194000",
          "170535.197000",
          "170535.200000",
          "170535.203000",
          "170535.206000",
          "170535.209000",
          "170535.212000",
          "170535.215000",
          "170535.218000",
          "170535.221000",
          "170535.224000",
          "170535.227000",
          "170535.230000",
          "170535.233000",
          "170535.236000",
          "170535.239000",
          "170535.242000",
          "170555.161000",
          "170555.164000",
          "170555.174000",
          "170555.176000",
          "170555.179000",
          "170555.182000",
          "170555.185000",
          "170555.188000",
          "170555.191000",
          "170555.194000",
          "170555.197000",
          "170555.200000",
          "170555.203000",
          "170555.206000",
          "170555.209000",
          "170555.212000",
          "170555.215000",
          "170555.218000",
          "170555.221000",
          "170555.224000",
          "170555.227000",
          "170555.230000",
          "170555.233000",
          "170555.236000",
          "170555.239000",
          "170555.242000",
          "170555.245000",
          "170555.248000",
          "170615.161000",
          "170615.164000",
          "170615.167000",
          "170615.170000",
          "170615.173000",
          "170615.176000",
          "170615.179000",
          "170615.182000",
          "170615.185000",
          "170615.188000",
          "170615.191000",
          "170615.194000",
          "170615.197000",
          "170615.200000",
          "170615.203000",
          "170615.206000",
          "170615.209000",
          "170615.212000",
          "170615.215000",
          "170615.218000",
          "170615.221000",
          "170615.224000",
          "170615.227000",
          "170615.230000",
          "170615.233000",
          "170615.236000",
          "170615.239000",
          "170615.242000",
          "170615.245000",
          "170635.161000",
          "170635.164000",
          "170635.167000",
          "170635.170000",
          "170635.173000",
          "170635.176000",
          "170635.179000",
          "170635.182000",
          "170635.185000",
          "170635.188000",
          "170635.191000",
          "170635.194000",
          "170635.197000",
          "170635.200000",
          "170635.203000",
          "170635.206000",
          "170635.209000",
          "170635.212000",
          "170635.215000",
          "170635.218000",
          "170635.221000",
          "170635.224000",
          "170635.226000",
          "170635.230000",
          "170635.243000",
          "170635.246000",
          "170635.249000",
          "170635.252000",
          "170646.102000",
          "170646.105000",
          "170646.108000",
          "170646.111000",
          "170646.114000",
          "170646.117000",
          "170646.120000",
          "170646.123000",
          "170646.126000",
          "170646.135000",
          "170646.138000",
          "170646.141000",
          "170646.144000",
          "170646.147000",
          "170646.150000"
        ],
        "InstanceNumber": [
          1,
          2,
          3,
          4,
          5,
          6,
          7,
          8,
          9,
          10,
          11,
          12,
          13,
          14,
          15,
          16,
          17,
          18,
          19,
          20,
          21,
          22,
          23,
          24,
          25,
          26,
          27,
          28,
          29,
          30,
          31,
          32,
          33,
          34,
          35,
          36,
          37,
          38,
          39,
          40,
          41,
          42,
          43,
          44,
          45,
          46,
          47,
          48,
          49,
          50,
          51,
          52,
          53,
          54,
          55,
          56,
          57,
          58,
          59,
          60,
          61,
          62,
          63,
          64,
          65,
          66,
          67,
          68,
          69,
          70,
          71,
          72,
          73,
          74,
          75,
          76,
          77,
          78,
          79,
          80,
          81,
          82,
          83,
          84,
          85,
          86,
          87,
          88,
          89,
          90,
          91,
          92,
          93,
          94,
          95,
          96,
          97,
          98,
          99,
          100,
          101,
          102,
          103,
          104,
          105,
          106,
          107,
          108,
          109,
          110,
          111,
          112,
          113,
          114,
          115,
          116,
          117,
          118,
          119,
          120,
          121,
          122,
          123,
          124,
          125,
          126,
          127,
          128,
          129,
          130,
          131,
          132,
          133,
          134,
          135,
          136,
          137,
          138,
          139,
          140,
          141,
          142,
          143,
          144,
          145,
          146,
          147,
          148,
          149,
          150,
          151,
          152,
          153,
          154,
          155,
          156,
          157,
          158,
          159,
          160,
          161,
          162,
          163,
          164,
          165,
          166,
          167,
          168,
          169,
          170,
          171,
          172,
          173,
          174,
          175,
          176,
          177,
          178,
          179,
          180,
          181,
          182,
          183,
          184,
          185,
          186,
          187,
          188,
          189,
          190,
          191,
          192
        ],
        "LargestImagePixelValue": [
          32684,
          33258,
          32343,
          31454,
          35883,
          36752,
          34333,
          32471,
          31846,
          31613,
          32444,
          33401,
          34154,
          34923,
          33724,
          35139,
          33436,
          32704,
          34740,
          34402,
          33323,
          33470,
          33580,
          34731,
          33887,
          35646,
          34932,
          32627,
          32760,
          31294,
          33634,
          32329,
          31717,
          32347,
          31946,
          32625,
          31789,
          30918,
          30794,
          34639,
          31055,
          30261,
          33013,
          31980,
          33836,
          31589,
          31227,
          33297,
          32622,
          30742,
          31820,
          31002,
          32298,
          32715,
          31523,
          34393,
          36340,
          35547,
          30530,
          34925,
          31678,
          32094,
          31691,
          32519,
          33943,
          33525,
          32017,
          34777,
          37045,
          33686,
          34368,
          31636,
          34705,
          30874,
          31805,
          32367,
          31357,
          33970,
          32740,
          33754,
          31666,
          33958,
          32906,
          33486,
