{
  "aor": 0.0004893749999999999,
  "aqi": 0.008741723541666668,
  "bids_meta": {
    "AcquisitionMatrixPE": 104,
    "AcquisitionNumber": 1,
    "AcquisitionTime": "16:52:15.467500",
    "BandwidthPerPixelPhaseEncode": 16.578,
    "BaseResolution": 104,
    "BodyPartExamined": "BRAIN",
    "CogAtlasID": "TODO",
    "ConsistencyInfo": "N4_VE11C_LATEST_20160120",
    "ConversionSoftware": "dcm2niix",
    "ConversionSoftwareVersion": "v1.0.20190902",
    "DerivedVendorReportedEchoSpacing": 0.000580009,
    "DeviceSerialNumber": "166018",
    "DwellTime": 2.1e-06,
    "EchoTime": 0.037,
    "EchoTrainLength": 104,
    "EffectiveEchoSpacing": 0.000580009,
    "FlipAngle": 68,
    "ImageComments": "Unaliased_MB6_PE3_LB",
    "ImageOrientationPatientDICOM": [
      0.997542,
      -0.0458307,
      0.0529967,
      0.0571685,
      0.969709,
      -0.237478
    ],
    "ImageType": [
      "ORIGINAL",
      "PRIMARY",
      "M",
      "MB",
      "ND",
      "MOSAIC"
    ],
    "ImagingFrequency": 123.191,
    "InPlanePhaseEncodingDirectionDICOM": "COL",
    "InstitutionAddress": "Washington_Place_6_NYC_NYC_US_10003",
    "InstitutionName": "NYU_-_CBI",
    "InstitutionalDepartmentName": "Department",
    "MRAcquisitionType": "2D",
    "MagneticFieldStrength": 3,
    "Manufacturer": "Siemens",
    "ManufacturersModelName": "Prisma",
    "Modality": "MR",
    "MultibandAccelerationFactor": 6,
    "NumberOfVolumes": 192,
    "PartialFourier": 1,
    "PatientPosition": "HFS",
    "PercentPhaseFOV": 100,
    "PhaseEncodingDirection": "j",
    "PhaseEncodingSteps": 104,
    "PhaseResolution": 1,
    "PixelBandwidth": 2290,
    "ProcedureStepDescription": "Investigators_Winawer",
    "ProtocolName": "cmrr_mbepi_s6_2mm_66sl_PA_TR1.0",
    "PulseSequenceDetails": "%CustomerSeq%_cmrr_mbep2d_bold",
    "ReceiveCoilActiveElements": "HC1-7",
    "ReceiveCoilName": "HeadNeck_64",
    "ReconMatrixPE": 104,
    "RepetitionTime": 1,
    "SAR": 0.0800726,
    "ScanOptions": "FS",
    "ScanningSequence": "EP",
    "SequenceName": "epfid2d1_104",
    "SequenceVariant": "SK_SS",
    "SeriesDescription": "cmrr_mbepi_s6_2mm_66sl_PA_TR1.0",
    "SeriesNumber": 12,
    "ShimSetting": [
      253,
      -12564,
      -8485,
      467,
      -12,
      -184,
      -35,
      8
    ],
    "SliceThickness": 2,
    "SliceTiming": [
      0,
      0.535,
      0.09,
      0.625,
      0.18,
      0.7125,
      0.2675,
      0.8025,
      0.3575,
      0.8925,
      0.4475,
      0,
      0.535,
      0.09,
      0.625,
      0.18,
      0.7125,
      0.2675,
      0.8025,
      0.3575,
      0.8925,
      0.4475,
      0,
      0.535,
      0.09,
      0.625,
      0.18,
      0.7125,
      0.2675,
      0.8025,
      0.3575,
      0.8925,
      0.4475,
      0,
      0.535,
      0.09,
      0.625,
      0.18,
      0.7125,
      0.2675,
      0.8025,
      0.3575,
      0.8925,
      0.4475,
      0,
      0.535,
      0.09,
      0.625,
      0.18,
      0.7125,
      0.2675,
      0.8025,
      0.3575,
      0.8925,
      0.4475,
      0,
      0.535,
      0.09,
      0.625,
      0.18,
      0.7125,
      0.2675,
      0.8025,
      0.3575,
      0.8925,
      0.4475
    ],
    "SoftwareVersions": "syngo_MR_E11",
    "SpacingBetweenSlices": 2,
    "StationName": "AWP166018",
    "TaskName": "prf",
    "TotalReadoutTime": 0.0597409,
    "TxRefAmp": 250.804,
    "WipMemBlock": "ee634ab6-942a-4b10-b12b-f84276b4ac44||Sequence: ve11c/master r/ab69a6c; Apr 19 2017 09:47:47 by eja",
    "acq_id": "PA",
    "dataset": "unknown",
    "dcmmeta_affine": [
      [
        -1.9950848817825317,
        0.1143370270729065,
        0.08101527392864227,
        105.4575424194336
      ],
      [
        0.0916614681482315,
        1.9394186735153198,
        -0.4798473119735718,
        -70.46788787841797
      ],
      [
        0.10599342733621597,
        0.4749550521373749,
        1.9398925304412842,
        -82.23838806152344
      ],
      [
        0.0,
        0.0,
        0.0,
        1.0
      ]
    ],
    "dcmmeta_reorient_transform": [
      [
        0.0,
        -1.0,
        0.0,
        103.0
      ],
      [
        1.0,
        0.0,
        0.0,
        0.0
      ],
      [
        0.0,
        0.0,
        1.0,
        0.0
      ],
      [
        0.0,
        0.0,
        0.0,
        1.0
      ]
    ],
    "dcmmeta_shape": [
      104,
      104,
      66,
      192
    ],
    "dcmmeta_slice_dim": 2,
    "dcmmeta_version": 0.6,
    "global": {
      "const": {
        "AccessionNumber": "j6wfq5gm",
        "AcquisitionMatrix": [
          104,
          0,
          0,
          104
        ],
        "AngioFlag": "N",
        "BitsAllocated": 16,
        "BitsStored": 16,
        "BodyPartExamined": "BRAIN",
        "Columns": 936,
        "EchoNumbers": 1,
        "EchoTime": 37.0,
        "EchoTrainLength": 104,
        "FlipAngle": 68.0,
        "HighBit": 15,
        "ImageOrientationPatient": [
          0.99754242629366,
          -0.0458307346607,
          0.05299671220584,
          0.05716851489868,
          0.96970933081106,
          -0.2374775244991
        ],
        "ImagePositionPatient": [
          -994.75375629416,
          -897.95922448674,
          120.17001961562
        ],
        "ImageType": [
          "ORIGINAL",
          "PRIMARY",
          "M",
          "MB",
          "ND",
          "MOSAIC"
        ],
        "ImagedNucleus": "1H",
        "ImagingFrequency": 123.19134,
        "InPlanePhaseEncodingDirection": "COL",
        "MRAcquisitionType": "2D",
        "MagneticFieldStrength": 3.0,
        "Manufacturer": "SIEMENS",
        "ManufacturerModelName": "Prisma",
        "Modality": "MR",
        "NumberOfAverages": 1.0,
        "NumberOfPhaseEncodingSteps": 104,
        "PercentPhaseFieldOfView": 100.0,
        "PercentSampling": 100.0,
        "PerformedProcedureStepStartTime": "164024.304000",
        "PhotometricInterpretation": "MONOCHROME2",
        "PixelBandwidth": 2290.0,
        "PixelRepresentation": 0,
        "PixelSpacing": [
          2.0,
          2.0
        ],
        "ProtocolName": "cmrr_mbepi_s6_2mm_66sl_PA_TR1.0",
        "RepetitionTime": 1000.0,
        "Rows": 936,
        "SAR": 0.08007259547669,
        "SamplesPerPixel": 1,
        "ScanOptions": "FS",
        "ScanningSequence": "EP",
        "SequenceName": "epfid2d1_104",
        "SequenceVariant": [
          "SK",
          "SS"
        ],
        "SeriesDescription": "cmrr_mbepi_s6_2mm_66sl_PA_TR1.0",
        "SeriesNumber": 12,
        "SeriesTime": "165335.185000",
        "SliceLocation": -58.588067354977,
        "SliceThickness": 2.0,
        "SmallestImagePixelValue": 0,
        "SoftwareVersions": "syngo MR E11",
        "SpacingBetweenSlices": 2.0000000254267,
        "SpecificCharacterSet": "ISO_IR 100",
        "StudyID": "1",
        "StudyTime": "164024.247000",
        "TransmitCoilName": "Body",
        "VariableFlipAngleFlag": "N",
        "WindowCenterWidthExplanation": "Algo1",
        "dBdt": 0.0
      },
      "slices": {}
    },
    "modality": "bold",
    "run_id": 3,
    "session_id": "nyu3t01",
    "subject_id": "wlsubj004",
    "task_id": "prf",
    "time": {
      "samples": {
        "AcquisitionNumber": [
          1,
          2,
          3,
          4,
          5,
          6,
          7,
          8,
          9,
          10,
          11,
          12,
          13,
          14,
          15,
          16,
          17,
          18,
          19,
          20,
          21,
          22,
          23,
          24,
          25,
          26,
          27,
          28,
          29,
          30,
          31,
          32,
          33,
          34,
          35,
          36,
          37,
          38,
          39,
          40,
          41,
          42,
          43,
          44,
          45,
          46,
          47,
          48,
          49,
          50,
          51,
          52,
          53,
          54,
          55,
          56,
          57,
          58,
          59,
          60,
          61,
          62,
          63,
          64,
          65,
          66,
          67,
          68,
          69,
          70,
          71,
          72,
          73,
          74,
          75,
          76,
          77,
          78,
          79,
          80,
          81,
          82,
          83,
          84,
          85,
          86,
          87,
          88,
          89,
          90,
          91,
          92,
          93,
          94,
          95,
          96,
          97,
          98,
          99,
          100,
          101,
          102,
          103,
          104,
          105,
          106,
          107,
          108,
          109,
          110,
          111,
          112,
          113,
          114,
          115,
          116,
          117,
          118,
          119,
          120,
          121,
          122,
          123,
          124,
          125,
          126,
          127,
          128,
          129,
          130,
          131,
          132,
          133,
          134,
          135,
          136,
          137,
          138,
          139,
          140,
          141,
          142,
          143,
          144,
          145,
          146,
          147,
          148,
          149,
          150,
          151,
          152,
          153,
          154,
          155,
          156,
          157,
          158,
          159,
          160,
          161,
          162,
          163,
          164,
          165,
          166,
          167,
          168,
          169,
          170,
          171,
          172,
          173,
          174,
          175,
          176,
          177,
          178,
          179,
          180,
          181,
          182,
          183,
          184,
          185,
          186,
          187,
          188,
          189,
          190,
          191,
          192
        ],
        "AcquisitionTime": [
          "165215.467500",
          "165216.467500",
          "165217.467500",
          "165218.467500",
          "165219.467500",
          "165220.467500",
          "165221.467500",
          "165222.467500",
          "165223.467500",
          "165224.467500",
          "165225.467500",
          "165226.467500",
          "165227.467500",
          "165228.467500",
          "165229.467500",
          "165230.467500",
          "165231.467500",
          "165232.467500",
          "165233.467500",
          "165234.467500",
          "165235.467500",
          "165236.467500",
          "165237.467500",
          "165238.467500",
          "165239.467500",
          "165240.467500",
          "165241.467500",
          "165242.467500",
          "165243.467500",
          "165244.467500",
          "165245.467500",
          "165246.467500",
          "165247.467500",
          "165248.467500",
          "165249.467500",
          "165250.467500",
          "165251.467500",
          "165252.467500",
          "165253.467500",
          "165254.467500",
          "165255.467500",
          "165256.467500",
          "165257.467500",
          "165258.467500",
          "165259.467500",
          "165300.467500",
          "165301.467500",
          "165302.467500",
          "165303.467500",
          "165304.467500",
          "165305.467500",
          "165306.467500",
          "165307.467500",
          "165308.467500",
          "165309.467500",
          "165310.467500",
          "165311.467500",
          "165312.467500",
          "165313.467500",
          "165314.467500",
          "165315.467500",
          "165316.467500",
          "165317.467500",
          "165318.467500",
          "165319.467500",
          "165320.467500",
          "165321.467500",
          "165322.467500",
          "165323.467500",
          "165324.467500",
          "165325.467500",
          "165326.467500",
          "165327.467500",
          "165328.467500",
          "165329.467500",
          "165330.467500",
          "165331.467500",
          "165332.467500",
          "165333.467500",
          "165334.467500",
          "165335.467500",
          "165336.467500",
          "165337.467500",
          "165338.467500",
          "165339.467500",
          "165340.467500",
          "165341.467500",
          "165342.467500",
          "165343.467500",
          "165344.467500",
          "165345.467500",
          "165346.467500",
          "165347.467500",
          "165348.467500",
          "165349.467500",
          "165350.467500",
          "165351.467500",
          "165352.467500",
          "165353.467500",
          "165354.467500",
          "165355.467500",
          "165356.467500",
          "165357.467500",
          "165358.467500",
          "165359.467500",
          "165400.467500",
          "165401.467500",
          "165402.467500",
          "165403.467500",
          "165404.467500",
          "165405.467500",
          "165406.467500",
          "165407.467500",
          "165408.467500",
          "165409.467500",
          "165410.467500",
          "165411.467500",
          "165412.467500",
          "165413.467500",
          "165414.467500",
          "165415.467500",
          "165416.467500",
          "165417.467500",
          "165418.467500",
          "165419.467500",
          "165420.467500",
          "165421.467500",
          "165422.467500",
          "165423.467500",
          "165424.467500",
          "165425.467500",
          "165426.467500",
          "165427.467500",
          "165428.467500",
          "165429.467500",
          "165430.467500",
          "165431.467500",
          "165432.467500",
          "165433.467500",
          "165434.467500",
          "165435.467500",
          "165436.467500",
          "165437.467500",
          "165438.467500",
          "165439.467500",
          "165440.467500",
          "165441.467500",
          "165442.467500",
          "165443.467500",
          "165444.467500",
          "165445.467500",
          "165446.467500",
          "165447.467500",
          "165448.467500",
          "165449.467500",
          "165450.467500",
          "165451.467500",
          "165452.467500",
          "165453.467500",
          "165454.467500",
          "165455.467500",
          "165456.467500",
          "165457.467500",
          "165458.467500",
          "165459.467500",
          "165500.467500",
          "165501.467500",
          "165502.467500",
          "165503.467500",
          "165504.467500",
          "165505.467500",
          "165506.467500",
          "165507.467500",
          "165508.467500",
          "165509.467500",
          "165510.467500",
          "165511.467500",
          "165512.467500",
          "165513.467500",
          "165514.467500",
          "165515.467500",
          "165516.467500",
          "165517.467500",
          "165518.467500",
          "165519.467500",
          "165520.467500",
          "165521.467500",
          "165522.467500",
          "165523.467500",
          "165524.467500",
          "165525.467500",
          "165526.467500"
        ],
        "ContentTime": [
          "165335.188000",
          "165335.191000",
          "165335.194000",
          "165335.198000",
          "165335.201000",
          "165335.203000",
          "165335.206000",
          "165335.210000",
          "165335.213000",
          "165335.215000",
          "165335.222000",
          "165335.232000",
          "165335.235000",
          "165335.238000",
          "165335.241000",
          "165335.244000",
          "165335.247000",
          "165335.250000",
          "165335.253000",
          "165335.256000",
          "165335.259000",
          "165335.262000",
          "165335.265000",
          "165335.268000",
          "165335.271000",
          "165335.274000",
          "165335.277000",
          "165335.280000",
          "165335.283000",
          "165335.286000",
          "165335.289000",
          "165335.292000",
          "165335.295000",
          "165355.161000",
          "165355.164000",
          "165355.167000",
          "165355.170000",
          "165355.174000",
          "165355.177000",
          "165355.180000",
          "165355.183000",
          "165355.186000",
          "165355.189000",
          "165355.192000",
          "165355.195000",
          "165355.198000",
          "165355.201000",
          "165355.204000",
          "165355.207000",
          "165355.210000",
          "165355.213000",
          "165355.216000",
          "165355.219000",
          "165355.222000",
          "165355.232000",
          "165355.235000",
          "165355.238000",
          "165355.241000",
          "165355.244000",
          "165355.247000",
          "165355.250000",
          "165415.161000",
          "165415.164000",
          "165415.167000",
          "165415.170000",
          "165415.173000",
          "165415.176000",
          "165415.179000",
          "165415.182000",
          "165415.187000",
          "165415.191000",
          "165415.194000",
          "165415.197000",
          "165415.200000",
          "165415.203000",
          "165415.206000",
          "165415.209000",
          "165415.212000",
          "165415.215000",
          "165415.218000",
          "165415.221000",
          "165415.224000",
          "165415.227000",
          "165415.230000",
          "165415.233000",
          "165415.236000",
          "165415.239000",
          "165415.242000",
          "165415.245000",
          "165435.161000",
          "165435.164000",
          "165435.167000",
          "165435.179000",
          "165435.182000",
          "165435.185000",
          "165435.187000",
          "165435.190000",
          "165435.193000",
          "165435.196000",
          "165435.199000",
          "165435.202000",
          "165435.205000",
          "165435.208000",
          "165435.211000",
          "165435.214000",
          "165435.217000",
          "165435.220000",
          "165435.223000",
          "165435.226000",
          "165435.229000",
          "165435.232000",
          "165435.235000",
          "165435.238000",
          "165435.241000",
          "165435.244000",
          "165435.247000",
          "165435.250000",
          "165435.253000",
          "165455.161000",
          "165455.164000",
          "165455.167000",
          "165455.170000",
          "165455.173000",
          "165455.176000",
          "165455.179000",
          "165455.182000",
          "165455.185000",
          "165455.188000",
          "165455.191000",
          "165455.194000",
          "165455.197000",
          "165455.200000",
          "165455.203000",
          "165455.206000",
          "165455.209000",
          "165455.212000",
          "165455.215000",
          "165455.218000",
          "165455.221000",
          "165455.224000",
          "165455.227000",
          "165455.230000",
          "165455.233000",
          "165455.236000",
          "165455.239000",
          "165455.242000",
          "165515.161000",
          "165515.164000",
          "165515.167000",
          "165515.170000",
          "165515.173000",
          "165515.176000",
          "165515.179000",
          "165515.182000",
          "165515.185000",
          "165515.188000",
          "165515.191000",
          "165515.194000",
          "165515.197000",
          "165515.200000",
          "165515.203000",
          "165515.206000",
          "165515.209000",
          "165515.212000",
          "165515.215000",
          "165515.218000",
          "165515.221000",
          "165515.224000",
          "165515.227000",
          "165515.230000",
          "165515.233000",
          "165515.236000",
          "165515.239000",
          "165515.242000",
          "165527.829000",
          "165527.833000",
          "165527.836000",
          "165527.839000",
          "165527.842000",
          "165527.845000",
          "165527.848000",
          "165527.851000",
          "165527.854000",
          "165527.857000",
          "165527.860000",
          "165527.863000",
          "165527.866000",
          "165527.869000",
          "165527.872000",
          "165527.875000",
          "165527.878000",
          "165527.881000"
        ],
        "InstanceCreationTime": [
          "165335.188000",
          "165335.191000",
          "165335.194000",
          "165335.198000",
          "165335.201000",
          "165335.203000",
          "165335.206000",
          "165335.210000",
          "165335.213000",
          "165335.215000",
          "165335.222000",
          "165335.232000",
          "165335.235000",
          "165335.238000",
          "165335.241000",
          "165335.244000",
          "165335.247000",
          "165335.250000",
          "165335.253000",
          "165335.256000",
          "165335.259000",
          "165335.262000",
          "165335.265000",
          "165335.268000",
          "165335.271000",
          "165335.274000",
          "165335.277000",
          "165335.280000",
          "165335.283000",
          "165335.286000",
          "165335.289000",
          "165335.292000",
          "165335.295000",
          "165355.161000",
          "165355.164000",
          "165355.167000",
          "165355.170000",
          "165355.174000",
          "165355.177000",
          "165355.180000",
          "165355.183000",
          "165355.186000",
          "165355.189000",
          "165355.192000",
          "165355.195000",
          "165355.198000",
          "165355.201000",
          "165355.204000",
          "165355.207000",
          "165355.210000",
          "165355.213000",
          "165355.216000",
          "165355.219000",
          "165355.222000",
          "165355.232000",
          "165355.235000",
          "165355.238000",
          "165355.241000",
          "165355.244000",
          "165355.247000",
          "165355.250000",
          "165415.161000",
          "165415.164000",
          "165415.167000",
          "165415.170000",
          "165415.173000",
          "165415.176000",
          "165415.179000",
          "165415.182000",
          "165415.187000",
          "165415.191000",
          "165415.194000",
          "165415.197000",
          "165415.200000",
          "165415.203000",
          "165415.206000",
          "165415.209000",
          "165415.212000",
          "165415.215000",
          "165415.218000",
          "165415.221000",
          "165415.224000",
          "165415.227000",
          "165415.230000",
          "165415.233000",
          "165415.236000",
          "165415.239000",
          "165415.242000",
          "165415.245000",
          "165435.161000",
          "165435.164000",
          "165435.167000",
          "165435.179000",
          "165435.182000",
          "165435.185000",
          "165435.187000",
          "165435.190000",
          "165435.193000",
          "165435.196000",
          "165435.199000",
          "165435.202000",
          "165435.205000",
          "165435.208000",
          "165435.211000",
          "165435.214000",
          "165435.217000",
          "165435.220000",
          "165435.223000",
          "165435.226000",
          "165435.229000",
          "165435.232000",
          "165435.235000",
          "165435.238000",
          "165435.241000",
          "165435.244000",
          "165435.247000",
          "165435.250000",
          "165435.253000",
          "165455.161000",
          "165455.164000",
          "165455.167000",
          "165455.170000",
          "165455.173000",
          "165455.176000",
          "165455.179000",
          "165455.182000",
          "165455.185000",
          "165455.188000",
          "165455.191000",
          "165455.194000",
          "165455.197000",
          "165455.200000",
          "165455.203000",
          "165455.206000",
          "165455.209000",
          "165455.212000",
          "165455.215000",
          "165455.218000",
          "165455.221000",
          "165455.224000",
          "165455.227000",
          "165455.230000",
          "165455.233000",
          "165455.236000",
          "165455.239000",
          "165455.242000",
          "165515.161000",
          "165515.164000",
          "165515.167000",
          "165515.170000",
          "165515.173000",
          "165515.176000",
          "165515.179000",
          "165515.182000",
          "165515.185000",
          "165515.188000",
          "165515.191000",
          "165515.194000",
          "165515.197000",
          "165515.200000",
          "165515.203000",
          "165515.206000",
          "165515.209000",
          "165515.212000",
          "165515.215000",
          "165515.218000",
          "165515.221000",
          "165515.224000",
          "165515.227000",
          "165515.230000",
          "165515.233000",
          "165515.236000",
          "165515.239000",
          "165515.242000",
          "165527.829000",
          "165527.833000",
          "165527.836000",
          "165527.839000",
          "165527.842000",
          "165527.845000",
          "165527.848000",
          "165527.851000",
          "165527.854000",
          "165527.857000",
          "165527.860000",
          "165527.863000",
          "165527.866000",
          "165527.869000",
          "165527.872000",
          "165527.875000",
          "165527.878000",
          "165527.881000"
        ],
        "InstanceNumber": [
          1,
          2,
          3,
          4,
          5,
          6,
          7,
          8,
          9,
          10,
          11,
          12,
          13,
          14,
          15,
          16,
          17,
          18,
          19,
          20,
          21,
          22,
          23,
          24,
          25,
          26,
          27,
          28,
          29,
          30,
          31,
          32,
          33,
          34,
          35,
          36,
          37,
          38,
          39,
          40,
          41,
          42,
          43,
          44,
          45,
          46,
          47,
          48,
          49,
          50,
          51,
          52,
          53,
          54,
          55,
          56,
          57,
          58,
          59,
          60,
          61,
          62,
          63,
          64,
          65,
          66,
          67,
          68,
          69,
          70,
          71,
          72,
          73,
          74,
          75,
          76,
          77,
          78,
          79,
          80,
          81,
          82,
          83,
          84,
          85,
          86,
          87,
          88,
          89,
          90,
          91,
          92,
          93,
          94,
          95,
          96,
          97,
          98,
          99,
          100,
          101,
          102,
          103,
          104,
          105,
          106,
          107,
          108,
          109,
          110,
          111,
          112,
          113,
          114,
          115,
          116,
          117,
          118,
          119,
          120,
          121,
          122,
          123,
          124,
          125,
          126,
          127,
          128,
          129,
          130,
          131,
          132,
          133,
          134,
          135,
          136,
          137,
          138,
          139,
          140,
          141,
          142,
          143,
          144,
          145,
          146,
          147,
          148,
          149,
          150,
          151,
          152,
          153,
          154,
          155,
          156,
          157,
          158,
          159,
          160,
          161,
          162,
          163,
          164,
          165,
          166,
          167,
          168,
          169,
          170,
          171,
          172,
          173,
          174,
          175,
          176,
          177,
          178,
          179,
          180,
          181,
          182,
          183,
          184,
          185,
          186,
          187,
          188,
          189,
          190,
          191,
          192
        ],
        "LargestImagePixelValue": [
          33813,
          34631,
          34647,
          34104,
          33916,
          34051,
          34727,
          33531,
          32882,
          34368,
          33996,
          34764,
          34942,
          35618,
          34956,
          33647,
          34401,
          34133,
          37096,
          37903,
          40290,
          40138,
          38225,
          36451,
          34333,
          34519,
          34245,
          33664,
          33550,
          33688,
          33966,
          37507,
          34889,
          33739,
          33031,
          33166,
          34181,
          37312,
          35216,
          34060,
          35802,
          35732,
          35874,
          33491,
          35730,
          33832,
          37842,
          33994,
          35458,
          37474,
          36725,
          36056,
          35259,
          34260,
          38531,
          36569,
          37144,
          38959,
          38355,
          37100,
          36078,
          34387,
          36349,
          36759,
          36850,
          33452,
          34782,
          36396,
          32843,
          33479,
          32966,
          32931,
          33916,
          35433,
          34893,
          34586,
          34545,
          35501,
          32180,
          32061,
          33328,
          37224,
          32756,
          32811,
