{
  "aor": 0.0008376439790575917,
  "aqi": 0.008283989790575916,
  "bids_meta": {
    "AcquisitionMatrixPE": 104,
    "AcquisitionNumber": 1,
    "AcquisitionTime": "16:44:45.275000",
    "BandwidthPerPixelPhaseEncode": 16.578,
    "BaseResolution": 104,
    "BodyPartExamined": "BRAIN",
    "CogAtlasID": "TODO",
    "ConsistencyInfo": "N4_VE11C_LATEST_20160120",
    "ConversionSoftware": "dcm2niix",
    "ConversionSoftwareVersion": "v1.0.20190902",
    "DerivedVendorReportedEchoSpacing": 0.000580009,
    "DeviceSerialNumber": "166018",
    "DwellTime": 2.1e-06,
    "EchoTime": 0.037,
    "EchoTrainLength": 104,
    "EffectiveEchoSpacing": 0.000580009,
    "FlipAngle": 68,
    "ImageComments": "Unaliased_MB6_PE3_LB",
    "ImageOrientationPatientDICOM": [
      0.997542,
      -0.0458307,
      0.0529967,
      0.0571685,
      0.969709,
      -0.237478
    ],
    "ImageType": [
      "ORIGINAL",
      "PRIMARY",
      "M",
      "MB",
      "ND",
      "MOSAIC"
    ],
    "ImagingFrequency": 123.191,
    "InPlanePhaseEncodingDirectionDICOM": "COL",
    "InstitutionAddress": "Washington_Place_6_NYC_NYC_US_10003",
    "InstitutionName": "NYU_-_CBI",
    "InstitutionalDepartmentName": "Department",
    "MRAcquisitionType": "2D",
    "MagneticFieldStrength": 3,
    "Manufacturer": "Siemens",
    "ManufacturersModelName": "Prisma",
    "Modality": "MR",
    "MultibandAccelerationFactor": 6,
    "NumberOfVolumes": 192,
    "PartialFourier": 1,
    "PatientPosition": "HFS",
    "PercentPhaseFOV": 100,
    "PhaseEncodingDirection": "j",
    "PhaseEncodingSteps": 104,
    "PhaseResolution": 1,
    "PixelBandwidth": 2290,
    "ProcedureStepDescription": "Investigators_Winawer",
    "ProtocolName": "cmrr_mbepi_s6_2mm_66sl_PA_TR1.0",
    "PulseSequenceDetails": "%CustomerSeq%_cmrr_mbep2d_bold",
    "ReceiveCoilActiveElements": "HC1-7",
    "ReceiveCoilName": "HeadNeck_64",
    "ReconMatrixPE": 104,
    "RepetitionTime": 1,
    "SAR": 0.0800726,
    "ScanOptions": "FS",
    "ScanningSequence": "EP",
    "SequenceName": "epfid2d1_104",
    "SequenceVariant": "SK_SS",
    "SeriesDescription": "cmrr_mbepi_s6_2mm_66sl_PA_TR1.0",
    "SeriesNumber": 8,
    "ShimSetting": [
      253,
      -12564,
      -8485,
      467,
      -12,
      -184,
      -35,
      8
    ],
    "SliceThickness": 2,
    "SliceTiming": [
      0,
      0.535,
      0.09,
      0.6225,
      0.1775,
      0.7125,
      0.2675,
      0.8025,
      0.355,
      0.89,
      0.445,
      0,
      0.535,
      0.09,
      0.6225,
      0.1775,
      0.7125,
      0.2675,
      0.8025,
      0.355,
      0.89,
      0.445,
      0,
      0.535,
      0.09,
      0.6225,
      0.1775,
      0.7125,
      0.2675,
      0.8025,
      0.355,
      0.89,
      0.445,
      0,
      0.535,
      0.09,
      0.6225,
      0.1775,
      0.7125,
      0.2675,
      0.8025,
      0.355,
      0.89,
      0.445,
      0,
      0.535,
      0.09,
      0.6225,
      0.1775,
      0.7125,
      0.2675,
      0.8025,
      0.355,
      0.89,
      0.445,
      0,
      0.535,
      0.09,
      0.6225,
      0.1775,
      0.7125,
      0.2675,
      0.8025,
      0.355,
      0.89,
      0.445
    ],
    "SoftwareVersions": "syngo_MR_E11",
    "SpacingBetweenSlices": 2,
    "StationName": "AWP166018",
    "TaskName": "prf",
    "TotalReadoutTime": 0.0597409,
    "TxRefAmp": 250.804,
    "WipMemBlock": "ee634ab6-942a-4b10-b12b-f84276b4ac44||Sequence: ve11c/master r/ab69a6c; Apr 19 2017 09:47:47 by eja",
    "acq_id": "PA",
    "dataset": "unknown",
    "dcmmeta_affine": [
      [
        -1.9950848817825317,
        0.1143370270729065,
        0.08101527392864227,
        105.4575424194336
      ],
      [
        0.0916614681482315,
        1.9394186735153198,
        -0.4798473119735718,
        -70.46788787841797
      ],
      [
        0.10599342733621597,
        0.4749550521373749,
        1.9398925304412842,
        -82.23838806152344
      ],
      [
        0.0,
        0.0,
        0.0,
        1.0
      ]
    ],
    "dcmmeta_reorient_transform": [
      [
        0.0,
        -1.0,
        0.0,
        103.0
      ],
      [
        1.0,
        0.0,
        0.0,
        0.0
      ],
      [
        0.0,
        0.0,
        1.0,
        0.0
      ],
      [
        0.0,
        0.0,
        0.0,
        1.0
      ]
    ],
    "dcmmeta_shape": [
      104,
      104,
      66,
      192
    ],
    "dcmmeta_slice_dim": 2,
    "dcmmeta_version": 0.6,
    "global": {
      "const": {
        "AccessionNumber": "j6wfq5gm",
        "AcquisitionMatrix": [
          104,
          0,
          0,
          104
        ],
        "AngioFlag": "N",
        "BitsAllocated": 16,
        "BitsStored": 16,
        "BodyPartExamined": "BRAIN",
        "Columns": 936,
        "EchoNumbers": 1,
        "EchoTime": 37.0,
        "EchoTrainLength": 104,
        "FlipAngle": 68.0,
        "HighBit": 15,
        "ImageOrientationPatient": [
          0.99754242629366,
          -0.0458307346607,
          0.05299671220584,
          0.05716851489868,
          0.96970933081106,
          -0.2374775244991
        ],
        "ImagePositionPatient": [
          -994.75375629416,
          -897.95922448674,
          120.17001961562
        ],
        "ImageType": [
          "ORIGINAL",
          "PRIMARY",
          "M",
          "MB",
          "ND",
          "MOSAIC"
        ],
        "ImagedNucleus": "1H",
        "ImagingFrequency": 123.19134,
        "InPlanePhaseEncodingDirection": "COL",
        "MRAcquisitionType": "2D",
        "MagneticFieldStrength": 3.0,
        "Manufacturer": "SIEMENS",
        "ManufacturerModelName": "Prisma",
        "Modality": "MR",
        "NumberOfAverages": 1.0,
        "NumberOfPhaseEncodingSteps": 104,
        "PercentPhaseFieldOfView": 100.0,
        "PercentSampling": 100.0,
        "PerformedProcedureStepStartTime": "164024.304000",
        "PhotometricInterpretation": "MONOCHROME2",
        "PixelBandwidth": 2290.0,
        "PixelRepresentation": 0,
        "PixelSpacing": [
          2.0,
          2.0
        ],
        "ProtocolName": "cmrr_mbepi_s6_2mm_66sl_PA_TR1.0",
        "RepetitionTime": 1000.0,
        "Rows": 936,
        "SAR": 0.08007259547669,
        "SamplesPerPixel": 1,
        "ScanOptions": "FS",
        "ScanningSequence": "EP",
        "SequenceName": "epfid2d1_104",
        "SequenceVariant": [
          "SK",
          "SS"
        ],
        "SeriesDescription": "cmrr_mbepi_s6_2mm_66sl_PA_TR1.0",
        "SeriesNumber": 8,
        "SeriesTime": "164609.244000",
        "SliceLocation": -58.588067354977,
        "SliceThickness": 2.0,
        "SmallestImagePixelValue": 0,
        "SoftwareVersions": "syngo MR E11",
        "SpacingBetweenSlices": 2.0000000254267,
        "SpecificCharacterSet": "ISO_IR 100",
        "StudyID": "1",
        "StudyTime": "164024.247000",
        "TransmitCoilName": "Body",
        "VariableFlipAngleFlag": "N",
        "WindowCenterWidthExplanation": "Algo1",
        "dBdt": 0.0
      },
      "slices": {}
    },
    "modality": "bold",
    "run_id": 1,
    "session_id": "nyu3t01",
    "subject_id": "wlsubj004",
    "task_id": "prf",
    "time": {
      "samples": {
        "AcquisitionNumber": [
          1,
          2,
          3,
          4,
          5,
          6,
          7,
          8,
          9,
          10,
          11,
          12,
          13,
          14,
          15,
          16,
          17,
          18,
          19,
          20,
          21,
          22,
          23,
          24,
          25,
          26,
          27,
          28,
          29,
          30,
          31,
          32,
          33,
          34,
          35,
          36,
          37,
          38,
          39,
          40,
          41,
          42,
          43,
          44,
          45,
          46,
          47,
          48,
          49,
          50,
          51,
          52,
          53,
          54,
          55,
          56,
          57,
          58,
          59,
          60,
          61,
          62,
          63,
          64,
          65,
          66,
          67,
          68,
          69,
          70,
          71,
          72,
          73,
          74,
          75,
          76,
          77,
          78,
          79,
          80,
          81,
          82,
          83,
          84,
          85,
          86,
          87,
          88,
          89,
          90,
          91,
          92,
          93,
          94,
          95,
          96,
          97,
          98,
          99,
          100,
          101,
          102,
          103,
          104,
          105,
          106,
          107,
          108,
          109,
          110,
          111,
          112,
          113,
          114,
          115,
          116,
          117,
          118,
          119,
          120,
          121,
          122,
          123,
          124,
          125,
          126,
          127,
          128,
          129,
          130,
          131,
          132,
          133,
          134,
          135,
          136,
          137,
          138,
          139,
          140,
          141,
          142,
          143,
          144,
          145,
          146,
          147,
          148,
          149,
          150,
          151,
          152,
          153,
          154,
          155,
          156,
          157,
          158,
          159,
          160,
          161,
          162,
          163,
          164,
          165,
          166,
          167,
          168,
          169,
          170,
          171,
          172,
          173,
          174,
          175,
          176,
          177,
          178,
          179,
          180,
          181,
          182,
          183,
          184,
          185,
          186,
          187,
          188,
          189,
          190,
          191,
          192
        ],
        "AcquisitionTime": [
          "164445.275000",
          "164446.275000",
          "164447.275000",
          "164448.275000",
          "164449.275000",
          "164450.275000",
          "164451.275000",
          "164452.275000",
          "164453.275000",
          "164454.275000",
          "164455.275000",
          "164456.275000",
          "164457.275000",
          "164458.275000",
          "164459.275000",
          "164500.275000",
          "164501.275000",
          "164502.275000",
          "164503.275000",
          "164504.275000",
          "164505.275000",
          "164506.275000",
          "164507.275000",
          "164508.275000",
          "164509.275000",
          "164510.275000",
          "164511.275000",
          "164512.275000",
          "164513.275000",
          "164514.275000",
          "164515.275000",
          "164516.275000",
          "164517.275000",
          "164518.275000",
          "164519.275000",
          "164520.275000",
          "164521.275000",
          "164522.275000",
          "164523.275000",
          "164524.275000",
          "164525.275000",
          "164526.275000",
          "164527.275000",
          "164528.275000",
          "164529.275000",
          "164530.275000",
          "164531.275000",
          "164532.275000",
          "164533.275000",
          "164534.275000",
          "164535.275000",
          "164536.275000",
          "164537.275000",
          "164538.275000",
          "164539.275000",
          "164540.275000",
          "164541.275000",
          "164542.275000",
          "164543.275000",
          "164544.275000",
          "164545.275000",
          "164546.275000",
          "164547.275000",
          "164548.275000",
          "164549.275000",
          "164550.275000",
          "164551.275000",
          "164552.275000",
          "164553.275000",
          "164554.275000",
          "164555.275000",
          "164556.275000",
          "164557.275000",
          "164558.275000",
          "164559.275000",
          "164600.275000",
          "164601.275000",
          "164602.275000",
          "164603.275000",
          "164604.275000",
          "164605.275000",
          "164606.275000",
          "164607.275000",
          "164608.275000",
          "164609.275000",
          "164610.275000",
          "164611.275000",
          "164612.275000",
          "164613.275000",
          "164614.275000",
          "164615.275000",
          "164616.275000",
          "164617.275000",
          "164618.275000",
          "164619.275000",
          "164620.275000",
          "164621.275000",
          "164622.275000",
          "164623.275000",
          "164624.275000",
          "164625.275000",
          "164626.275000",
          "164627.275000",
          "164628.275000",
          "164629.275000",
          "164630.275000",
          "164631.275000",
          "164632.275000",
          "164633.275000",
          "164634.275000",
          "164635.275000",
          "164636.275000",
          "164637.275000",
          "164638.275000",
          "164639.275000",
          "164640.275000",
          "164641.275000",
          "164642.275000",
          "164643.275000",
          "164644.275000",
          "164645.275000",
          "164646.275000",
          "164647.275000",
          "164648.275000",
          "164649.275000",
          "164650.275000",
          "164651.275000",
          "164652.275000",
          "164653.275000",
          "164654.275000",
          "164655.275000",
          "164656.275000",
          "164657.275000",
          "164658.275000",
          "164659.275000",
          "164700.275000",
          "164701.275000",
          "164702.275000",
          "164703.275000",
          "164704.275000",
          "164705.275000",
          "164706.275000",
          "164707.275000",
          "164708.275000",
          "164709.275000",
          "164710.275000",
          "164711.275000",
          "164712.275000",
          "164713.275000",
          "164714.275000",
          "164715.275000",
          "164716.275000",
          "164717.275000",
          "164718.275000",
          "164719.275000",
          "164720.275000",
          "164721.275000",
          "164722.275000",
          "164723.275000",
          "164724.275000",
          "164725.275000",
          "164726.275000",
          "164727.275000",
          "164728.275000",
          "164729.275000",
          "164730.275000",
          "164731.275000",
          "164732.275000",
          "164733.275000",
          "164734.275000",
          "164735.275000",
          "164736.275000",
          "164737.275000",
          "164738.275000",
          "164739.275000",
          "164740.275000",
          "164741.275000",
          "164742.275000",
          "164743.275000",
          "164744.275000",
          "164745.275000",
          "164746.275000",
          "164747.275000",
          "164748.275000",
          "164749.275000",
          "164750.275000",
          "164751.275000",
          "164752.275000",
          "164753.275000",
          "164754.275000",
          "164755.275000",
          "164756.275000"
        ],
        "ContentTime": [
          "164609.248000",
          "164609.251000",
          "164609.254000",
          "164609.257000",
          "164609.260000",
          "164609.263000",
          "164609.266000",
          "164609.269000",
          "164609.272000",
          "164609.275000",
          "164609.278000",
          "164609.281000",
          "164609.284000",
          "164609.287000",
          "164609.290000",
          "164609.293000",
          "164609.296000",
          "164609.299000",
          "164609.302000",
          "164609.305000",
          "164609.308000",
          "164609.311000",
          "164609.314000",
          "164609.317000",
          "164609.320000",
          "164609.323000",
          "164609.326000",
          "164609.329000",
          "164609.332000",
          "164609.335000",
          "164609.337000",
          "164609.341000",
          "164609.344000",
          "164609.346000",
          "164609.354000",
          "164609.357000",
          "164609.366000",
          "164609.369000",
          "164609.371000",
          "164629.211000",
          "164629.214000",
          "164629.217000",
          "164629.220000",
          "164629.223000",
          "164629.226000",
          "164629.229000",
          "164629.240000",
          "164629.243000",
          "164629.246000",
          "164629.249000",
          "164629.252000",
          "164629.255000",
          "164629.258000",
          "164629.261000",
          "164629.264000",
          "164629.267000",
          "164629.270000",
          "164629.273000",
          "164629.276000",
          "164629.278000",
          "164629.282000",
          "164629.286000",
          "164629.293000",
          "164629.297000",
          "164629.300000",
          "164629.303000",
          "164629.306000",
          "164649.211000",
          "164649.214000",
          "164649.217000",
          "164649.220000",
          "164649.223000",
          "164649.226000",
          "164649.229000",
          "164649.232000",
          "164649.235000",
          "164649.238000",
          "164649.241000",
          "164649.244000",
          "164649.247000",
          "164649.250000",
          "164649.253000",
          "164649.256000",
          "164649.258000",
          "164649.262000",
          "164649.264000",
          "164649.267000",
          "164649.270000",
          "164649.273000",
          "164649.276000",
          "164649.279000",
          "164649.283000",
          "164649.286000",
          "164649.289000",
          "164649.292000",
          "164649.295000",
          "164709.211000",
          "164709.214000",
          "164709.217000",
          "164709.220000",
          "164709.223000",
          "164709.226000",
          "164709.229000",
          "164709.232000",
          "164709.235000",
          "164709.238000",
          "164709.241000",
          "164709.244000",
          "164709.247000",
          "164709.250000",
          "164709.253000",
          "164709.256000",
          "164709.259000",
          "164709.262000",
          "164709.265000",
          "164709.268000",
          "164709.271000",
          "164709.274000",
          "164709.276000",
          "164709.279000",
          "164709.282000",
          "164709.285000",
          "164709.288000",
          "164709.291000",
          "164729.211000",
          "164729.214000",
          "164729.217000",
          "164729.220000",
          "164729.223000",
          "164729.226000",
          "164729.229000",
          "164729.232000",
          "164729.235000",
          "164729.238000",
          "164729.241000",
          "164729.244000",
          "164729.247000",
          "164729.250000",
          "164729.252000",
          "164729.255000",
          "164729.258000",
          "164729.261000",
          "164729.264000",
          "164729.267000",
          "164729.270000",
          "164729.273000",
          "164729.276000",
          "164729.279000",
          "164729.283000",
          "164729.286000",
          "164729.289000",
          "164729.292000",
          "164749.211000",
          "164749.214000",
          "164749.217000",
          "164749.220000",
          "164749.223000",
          "164749.226000",
          "164749.229000",
          "164749.232000",
          "164749.235000",
          "164749.238000",
          "164749.241000",
          "164749.244000",
          "164749.247000",
          "164749.250000",
          "164749.253000",
          "164749.256000",
          "164749.259000",
          "164749.262000",
          "164749.265000",
          "164749.268000",
          "164749.271000",
          "164749.274000",
          "164749.277000",
          "164749.280000",
          "164749.283000",
          "164749.286000",
          "164749.289000",
          "164749.292000",
          "164749.295000",
          "164757.628000",
          "164757.632000",
          "164757.635000",
          "164757.638000",
          "164757.641000",
          "164757.644000",
          "164757.647000",
          "164757.650000",
          "164757.653000",
          "164757.656000",
          "164757.659000"
        ],
        "InstanceCreationTime": [
          "164609.248000",
          "164609.251000",
          "164609.254000",
          "164609.257000",
          "164609.260000",
          "164609.263000",
          "164609.266000",
          "164609.269000",
          "164609.272000",
          "164609.275000",
          "164609.278000",
          "164609.281000",
          "164609.284000",
          "164609.287000",
          "164609.290000",
          "164609.293000",
          "164609.296000",
          "164609.299000",
          "164609.302000",
          "164609.305000",
          "164609.308000",
          "164609.311000",
          "164609.314000",
          "164609.317000",
          "164609.320000",
          "164609.323000",
          "164609.326000",
          "164609.329000",
          "164609.332000",
          "164609.335000",
          "164609.337000",
          "164609.341000",
          "164609.344000",
          "164609.346000",
          "164609.354000",
          "164609.357000",
          "164609.366000",
          "164609.369000",
          "164609.371000",
          "164629.211000",
          "164629.214000",
          "164629.217000",
          "164629.220000",
          "164629.223000",
          "164629.226000",
          "164629.229000",
          "164629.240000",
          "164629.243000",
          "164629.246000",
          "164629.249000",
          "164629.252000",
          "164629.255000",
          "164629.258000",
          "164629.261000",
          "164629.264000",
          "164629.267000",
          "164629.270000",
          "164629.273000",
          "164629.276000",
          "164629.278000",
          "164629.282000",
          "164629.286000",
          "164629.293000",
          "164629.297000",
          "164629.300000",
          "164629.303000",
          "164629.306000",
          "164649.211000",
          "164649.214000",
          "164649.217000",
          "164649.220000",
          "164649.223000",
          "164649.226000",
          "164649.229000",
          "164649.232000",
          "164649.235000",
          "164649.238000",
          "164649.241000",
          "164649.244000",
          "164649.247000",
          "164649.250000",
          "164649.253000",
          "164649.256000",
          "164649.258000",
          "164649.262000",
          "164649.264000",
          "164649.267000",
          "164649.270000",
          "164649.273000",
          "164649.276000",
          "164649.279000",
          "164649.283000",
          "164649.286000",
          "164649.289000",
          "164649.292000",
          "164649.295000",
          "164709.211000",
          "164709.214000",
          "164709.217000",
          "164709.220000",
          "164709.223000",
          "164709.226000",
          "164709.229000",
          "164709.232000",
          "164709.235000",
          "164709.238000",
          "164709.241000",
          "164709.244000",
          "164709.247000",
          "164709.250000",
          "164709.253000",
          "164709.256000",
          "164709.259000",
          "164709.262000",
          "164709.265000",
          "164709.268000",
          "164709.271000",
          "164709.274000",
          "164709.276000",
          "164709.279000",
          "164709.282000",
          "164709.285000",
          "164709.288000",
          "164709.291000",
          "164729.211000",
          "164729.214000",
          "164729.217000",
          "164729.220000",
          "164729.223000",
          "164729.226000",
          "164729.229000",
          "164729.232000",
          "164729.235000",
          "164729.238000",
          "164729.241000",
          "164729.244000",
          "164729.247000",
          "164729.250000",
          "164729.252000",
          "164729.255000",
          "164729.258000",
          "164729.261000",
          "164729.264000",
          "164729.267000",
          "164729.270000",
          "164729.273000",
          "164729.276000",
          "164729.279000",
          "164729.283000",
          "164729.286000",
          "164729.289000",
          "164729.292000",
          "164749.211000",
          "164749.214000",
          "164749.217000",
          "164749.220000",
          "164749.223000",
          "164749.226000",
          "164749.229000",
          "164749.232000",
          "164749.235000",
          "164749.238000",
          "164749.241000",
          "164749.244000",
          "164749.247000",
          "164749.250000",
          "164749.253000",
          "164749.256000",
          "164749.259000",
          "164749.262000",
          "164749.265000",
          "164749.268000",
          "164749.271000",
          "164749.274000",
          "164749.277000",
          "164749.280000",
          "164749.283000",
          "164749.286000",
          "164749.289000",
          "164749.292000",
          "164749.295000",
          "164757.628000",
          "164757.632000",
          "164757.635000",
          "164757.638000",
          "164757.641000",
          "164757.644000",
          "164757.647000",
          "164757.650000",
          "164757.653000",
          "164757.656000",
          "164757.659000"
        ],
        "InstanceNumber": [
          1,
          2,
          3,
          4,
          5,
          6,
          7,
          8,
          9,
          10,
          11,
          12,
          13,
          14,
          15,
          16,
          17,
          18,
          19,
          20,
          21,
          22,
          23,
          24,
          25,
          26,
          27,
          28,
          29,
          30,
          31,
          32,
          33,
          34,
          35,
          36,
          37,
          38,
          39,
          40,
          41,
          42,
          43,
          44,
          45,
          46,
          47,
          48,
          49,
          50,
          51,
          52,
          53,
          54,
          55,
          56,
          57,
          58,
          59,
          60,
          61,
          62,
          63,
          64,
          65,
          66,
          67,
          68,
          69,
          70,
          71,
          72,
          73,
          74,
          75,
          76,
          77,
          78,
          79,
          80,
          81,
          82,
          83,
          84,
          85,
          86,
          87,
          88,
          89,
          90,
          91,
          92,
          93,
          94,
          95,
          96,
          97,
          98,
          99,
          100,
          101,
          102,
          103,
          104,
          105,
          106,
          107,
          108,
          109,
          110,
          111,
          112,
          113,
          114,
          115,
          116,
          117,
          118,
          119,
          120,
          121,
          122,
          123,
          124,
          125,
          126,
          127,
          128,
          129,
          130,
          131,
          132,
          133,
          134,
          135,
          136,
          137,
          138,
          139,
          140,
          141,
          142,
          143,
          144,
          145,
          146,
          147,
          148,
          149,
          150,
          151,
          152,
          153,
          154,
          155,
          156,
          157,
          158,
          159,
          160,
          161,
          162,
          163,
          164,
          165,
          166,
          167,
          168,
          169,
          170,
          171,
          172,
          173,
          174,
          175,
          176,
          177,
          178,
          179,
          180,
          181,
          182,
          183,
          184,
          185,
          186,
          187,
          188,
          189,
          190,
          191,
          192
        ],
        "LargestImagePixelValue": [
          36544,
          35822,
          35098,
          39566,
          42062,
          34470,
          34859,
          36676,
          35740,
          34666,
          35503,
          38606,
          41061,
          41095,
          35931,
          35936,
          35284,
          36591,
          37264,
          35796,
          34378,
          35292,
          35534,
          38379,
          39511,
          35991,
          35390,
          35032,
          36462,
          37022,
          35844,
          36309,
          37110,
          36405,
          35149,
          35521,
          36722,
          35622,
          35637,
          36953,
          36740,
          35379,
          35219,
          36586,
          36346,
          36357,
          34566,
          35637,
          35253,
          35300,
          36790,
          36785,
          35455,
          35576,
          37905,
          35680,
          34663,
          35448,
          35676,
          35614,
          35168,
          34789,
          35465,
          34659,
          34762,
          35794,
          35043,
          35941,
          35102,
          36022,
          35314,
          34283,
          39535,
          35802,
          35465,
          34233,
          35018,
          34632,
          34797,
          39966,
          35340,
          35286,
          34000,
          34292,
