{
  "aor": 0.00394109375,
  "aqi": 0.0087611615625,
  "bids_meta": {
    "AcquisitionMatrixPE": 104,
    "AcquisitionNumber": 1,
    "AcquisitionTime": "09:42:10.467500",
    "BandwidthPerPixelPhaseEncode": 16.578,
    "BaseResolution": 104,
    "BodyPartExamined": "BRAIN",
    "CogAtlasID": "TODO",
    "ConsistencyInfo": "N4_VE11C_LATEST_20160120",
    "ConversionSoftware": "dcm2niix",
    "ConversionSoftwareVersion": "v1.0.20190902",
    "DerivedVendorReportedEchoSpacing": 0.000580009,
    "DeviceSerialNumber": "166018",
    "DwellTime": 2.1e-06,
    "EchoTime": 0.037,
    "EchoTrainLength": 104,
    "EffectiveEchoSpacing": 0.000580009,
    "FlipAngle": 68,
    "ImageComments": "Unaliased_MB6_PE3_LB",
    "ImageOrientationPatientDICOM": [
      0.998427,
      -0.0552852,
      0.00938103,
      0.0559955,
      0.974023,
      -0.219418
    ],
    "ImageType": [
      "ORIGINAL",
      "PRIMARY",
      "M",
      "MB",
      "ND",
      "MOSAIC"
    ],
    "ImagingFrequency": 123.191,
    "InPlanePhaseEncodingDirectionDICOM": "COL",
    "InstitutionAddress": "Washington_Place_6_NYC_NYC_US_10003",
    "InstitutionName": "NYU_-_CBI",
    "InstitutionalDepartmentName": "Department",
    "MRAcquisitionType": "2D",
    "MagneticFieldStrength": 3,
    "Manufacturer": "Siemens",
    "ManufacturersModelName": "Prisma",
    "Modality": "MR",
    "MultibandAccelerationFactor": 6,
    "NumberOfVolumes": 192,
    "PartialFourier": 1,
    "PatientPosition": "HFS",
    "PercentPhaseFOV": 100,
    "PhaseEncodingDirection": "j",
    "PhaseEncodingSteps": 104,
    "PhaseResolution": 1,
    "PixelBandwidth": 2290,
    "ProcedureStepDescription": "Investigators_Winawer",
    "ProtocolName": "cmrr_mbepi_s6_2mm_66sl_PA_task-prf",
    "PulseSequenceDetails": "%CustomerSeq%_cmrr_mbep2d_bold",
    "ReceiveCoilActiveElements": "HC1-7",
    "ReceiveCoilName": "HeadNeck_64",
    "ReconMatrixPE": 104,
    "RepetitionTime": 1,
    "SAR": 0.0611204,
    "ScanOptions": "FS",
    "ScanningSequence": "EP",
    "SequenceName": "epfid2d1_104",
    "SequenceVariant": "SK_SS",
    "SeriesDescription": "cmrr_mbepi_s6_2mm_66sl_PA_task-prf",
    "SeriesNumber": 16,
    "ShimSetting": [
      287,
      -12608,
      -8480,
      480,
      34,
      -213,
      -122,
      -75
    ],
    "SliceThickness": 2,
    "SliceTiming": [
      0,
      0.535,
      0.0875,
      0.6225,
      0.1775,
      0.7125,
      0.2675,
      0.8025,
      0.355,
      0.89,
      0.445,
      0,
      0.535,
      0.0875,
      0.6225,
      0.1775,
      0.7125,
      0.2675,
      0.8025,
      0.355,
      0.89,
      0.445,
      0,
      0.535,
      0.0875,
      0.6225,
      0.1775,
      0.7125,
      0.2675,
      0.8025,
      0.355,
      0.89,
      0.445,
      0,
      0.535,
      0.0875,
      0.6225,
      0.1775,
      0.7125,
      0.2675,
      0.8025,
      0.355,
      0.89,
      0.445,
      0,
      0.535,
      0.0875,
      0.6225,
      0.1775,
      0.7125,
      0.2675,
      0.8025,
      0.355,
      0.89,
      0.445,
      0,
      0.535,
      0.0875,
      0.6225,
      0.1775,
      0.7125,
      0.2675,
      0.8025,
      0.355,
      0.89,
      0.445
    ],
    "SoftwareVersions": "syngo_MR_E11",
    "SpacingBetweenSlices": 2,
    "StationName": "AWP166018",
    "TaskName": "prf",
    "TotalReadoutTime": 0.0597409,
    "TxRefAmp": 211.783,
    "WipMemBlock": "94b1d645-8d5f-4886-b8a5-4465e820678a||Sequence: R016 ve11c/master r/8780670; Nov 27 2017 15:05:12 by eja",
    "acq_id": "PA",
    "dataset": "unknown",
    "dcmmeta_affine": [
      [
        -1.9968531131744385,
        0.11199100315570831,
        -0.005986477714031935,
        104.43470764160156
      ],
      [
        0.11057037860155106,
        1.9480453729629517,
        -0.4391964077949524,
        -68.59052276611328
      ],
      [
        0.01876205764710903,
        0.43883630633354187,
        1.951171636581421,
        -89.40106201171875
      ],
      [
        0.0,
        0.0,
        0.0,
        1.0
      ]
    ],
    "dcmmeta_reorient_transform": [
      [
        0.0,
        -1.0,
        0.0,
        103.0
      ],
      [
        1.0,
        0.0,
        0.0,
        0.0
      ],
      [
        0.0,
        0.0,
        1.0,
        0.0
      ],
      [
        0.0,
        0.0,
        0.0,
        1.0
      ]
    ],
    "dcmmeta_shape": [
      104,
      104,
      66,
      192
    ],
    "dcmmeta_slice_dim": 2,
    "dcmmeta_version": 0.6,
    "global": {
      "const": {
        "AccessionNumber": "jura7h2e",
        "AcquisitionMatrix": [
          104,
          0,
          0,
          104
        ],
        "AngioFlag": "N",
        "BitsAllocated": 16,
        "BitsStored": 16,
        "BodyPartExamined": "BRAIN",
        "Columns": 936,
        "EchoNumbers": 1,
        "EchoTime": 37.0,
        "EchoTrainLength": 104,
        "FlipAngle": 68.0,
        "HighBit": 15,
        "ImageOrientationPatient": [
          0.99842653421533,
          -0.0552851885032,
          0.00938102909778,
          0.05599550246081,
          0.97402267827199,
          -0.2194181531142
        ],
        "ImagePositionPatient": [
          -993.24891946012,
          -896.44774324343,
          130.54996353343
        ],
        "ImageType": [
          "ORIGINAL",
          "PRIMARY",
          "M",
          "MB",
          "ND",
          "MOSAIC"
        ],
        "ImagedNucleus": "1H",
        "ImagingFrequency": 123.191174,
        "InPlanePhaseEncodingDirection": "COL",
        "MRAcquisitionType": "2D",
        "MagneticFieldStrength": 3.0,
        "Manufacturer": "SIEMENS",
        "ManufacturerModelName": "Prisma",
        "Modality": "MR",
        "NumberOfAverages": 1.0,
        "NumberOfPhaseEncodingSteps": 104,
        "PercentPhaseFieldOfView": 100.0,
        "PercentSampling": 100.0,
        "PerformedProcedureStepStartTime": "090550.678000",
        "PhotometricInterpretation": "MONOCHROME2",
        "PixelBandwidth": 2290.0,
        "PixelRepresentation": 0,
        "PixelSpacing": [
          2.0,
          2.0
        ],
        "ProtocolName": "cmrr_mbepi_s6_2mm_66sl_PA_task-prf",
        "RepetitionTime": 1000.0,
        "Rows": 936,
        "SAR": 0.06112039097795,
        "SamplesPerPixel": 1,
        "ScanOptions": "FS",
        "ScanningSequence": "EP",
        "SequenceName": "epfid2d1_104",
        "SequenceVariant": [
          "SK",
          "SS"
        ],
        "SeriesDescription": "cmrr_mbepi_s6_2mm_66sl_PA_task-prf",
        "SeriesNumber": 16,
        "SeriesTime": "094310.866000",
        "SliceLocation": -72.468651747613,
        "SliceThickness": 2.0,
        "SmallestImagePixelValue": 0,
        "SoftwareVersions": "syngo MR E11",
        "SpacingBetweenSlices": 1.9999999664337,
        "SpecificCharacterSet": "ISO_IR 100",
        "StudyID": "1",
        "StudyTime": "090550.517000",
        "TransmitCoilName": "Body",
        "VariableFlipAngleFlag": "N",
        "WindowCenterWidthExplanation": "Algo1",
        "dBdt": 0.0
      },
      "slices": {}
    },
    "modality": "bold",
    "run_id": 5,
    "session_id": "nyu3t01",
    "subject_id": "wlsubj091",
    "task_id": "prf",
    "time": {
      "samples": {
        "AcquisitionNumber": [
          1,
          2,
          3,
          4,
          5,
          6,
          7,
          8,
          9,
          10,
          11,
          12,
          13,
          14,
          15,
          16,
          17,
          18,
          19,
          20,
          21,
          22,
          23,
          24,
          25,
          26,
          27,
          28,
          29,
          30,
          31,
          32,
          33,
          34,
          35,
          36,
          37,
          38,
          39,
          40,
          41,
          42,
          43,
          44,
          45,
          46,
          47,
          48,
          49,
          50,
          51,
          52,
          53,
          54,
          55,
          56,
          57,
          58,
          59,
          60,
          61,
          62,
          63,
          64,
          65,
          66,
          67,
          68,
          69,
          70,
          71,
          72,
          73,
          74,
          75,
          76,
          77,
          78,
          79,
          80,
          81,
          82,
          83,
          84,
          85,
          86,
          87,
          88,
          89,
          90,
          91,
          92,
          93,
          94,
          95,
          96,
          97,
          98,
          99,
          100,
          101,
          102,
          103,
          104,
          105,
          106,
          107,
          108,
          109,
          110,
          111,
          112,
          113,
          114,
          115,
          116,
          117,
          118,
          119,
          120,
          121,
          122,
          123,
          124,
          125,
          126,
          127,
          128,
          129,
          130,
          131,
          132,
          133,
          134,
          135,
          136,
          137,
          138,
          139,
          140,
          141,
          142,
          143,
          144,
          145,
          146,
          147,
          148,
          149,
          150,
          151,
          152,
          153,
          154,
          155,
          156,
          157,
          158,
          159,
          160,
          161,
          162,
          163,
          164,
          165,
          166,
          167,
          168,
          169,
          170,
          171,
          172,
          173,
          174,
          175,
          176,
          177,
          178,
          179,
          180,
          181,
          182,
          183,
          184,
          185,
          186,
          187,
          188,
          189,
          190,
          191,
          192
        ],
        "AcquisitionTime": [
          "094210.467500",
          "094211.467500",
          "094212.467500",
          "094213.467500",
          "094214.467500",
          "094215.467500",
          "094216.467500",
          "094217.467500",
          "094218.467500",
          "094219.467500",
          "094220.467500",
          "094221.467500",
          "094222.467500",
          "094223.467500",
          "094224.467500",
          "094225.467500",
          "094226.467500",
          "094227.467500",
          "094228.467500",
          "094229.467500",
          "094230.467500",
          "094231.467500",
          "094232.467500",
          "094233.467500",
          "094234.467500",
          "094235.467500",
          "094236.467500",
          "094237.467500",
          "094238.467500",
          "094239.467500",
          "094240.467500",
          "094241.467500",
          "094242.467500",
          "094243.467500",
          "094244.467500",
          "094245.467500",
          "094246.467500",
          "094247.467500",
          "094248.467500",
          "094249.467500",
          "094250.467500",
          "094251.467500",
          "094252.467500",
          "094253.467500",
          "094254.467500",
          "094255.467500",
          "094256.467500",
          "094257.467500",
          "094258.467500",
          "094259.467500",
          "094300.467500",
          "094301.467500",
          "094302.467500",
          "094303.467500",
          "094304.467500",
          "094305.467500",
          "094306.467500",
          "094307.467500",
          "094308.467500",
          "094309.467500",
          "094310.467500",
          "094311.467500",
          "094312.467500",
          "094313.467500",
          "094314.467500",
          "094315.467500",
          "094316.467500",
          "094317.467500",
          "094318.467500",
          "094319.467500",
          "094320.467500",
          "094321.467500",
          "094322.467500",
          "094323.467500",
          "094324.467500",
          "094325.467500",
          "094326.467500",
          "094327.467500",
          "094328.467500",
          "094329.467500",
          "094330.467500",
          "094331.467500",
          "094332.467500",
          "094333.467500",
          "094334.467500",
          "094335.467500",
          "094336.467500",
          "094337.467500",
          "094338.467500",
          "094339.467500",
          "094340.467500",
          "094341.467500",
          "094342.467500",
          "094343.467500",
          "094344.467500",
          "094345.467500",
          "094346.467500",
          "094347.467500",
          "094348.467500",
          "094349.467500",
          "094350.467500",
          "094351.467500",
          "094352.467500",
          "094353.467500",
          "094354.467500",
          "094355.467500",
          "094356.467500",
          "094357.467500",
          "094358.467500",
          "094359.467500",
          "094400.467500",
          "094401.467500",
          "094402.467500",
          "094403.467500",
          "094404.467500",
          "094405.467500",
          "094406.467500",
          "094407.467500",
          "094408.467500",
          "094409.467500",
          "094410.467500",
          "094411.467500",
          "094412.467500",
          "094413.467500",
          "094414.467500",
          "094415.467500",
          "094416.467500",
          "094417.467500",
          "094418.467500",
          "094419.467500",
          "094420.467500",
          "094421.467500",
          "094422.467500",
          "094423.467500",
          "094424.467500",
          "094425.467500",
          "094426.467500",
          "094427.467500",
          "094428.467500",
          "094429.467500",
          "094430.467500",
          "094431.467500",
          "094432.467500",
          "094433.467500",
          "094434.467500",
          "094435.467500",
          "094436.467500",
          "094437.467500",
          "094438.467500",
          "094439.467500",
          "094440.467500",
          "094441.467500",
          "094442.467500",
          "094443.467500",
          "094444.467500",
          "094445.467500",
          "094446.467500",
          "094447.467500",
          "094448.467500",
          "094449.467500",
          "094450.467500",
          "094451.467500",
          "094452.467500",
          "094453.467500",
          "094454.467500",
          "094455.467500",
          "094456.467500",
          "094457.467500",
          "094458.467500",
          "094459.467500",
          "094500.467500",
          "094501.467500",
          "094502.467500",
          "094503.467500",
          "094504.467500",
          "094505.467500",
          "094506.467500",
          "094507.467500",
          "094508.467500",
          "094509.467500",
          "094510.467500",
          "094511.467500",
          "094512.467500",
          "094513.467500",
          "094514.467500",
          "094515.467500",
          "094516.467500",
          "094517.467500",
          "094518.467500",
          "094519.467500",
          "094520.467500",
          "094521.467500"
        ],
        "ContentTime": [
          "094310.869000",
          "094310.873000",
          "094310.876000",
          "094310.879000",
          "094310.881000",
          "094310.884000",
          "094315.841000",
          "094315.844000",
          "094315.847000",
          "094315.850000",
          "094315.853000",
          "094315.856000",
          "094315.858000",
          "094320.841000",
          "094320.844000",
          "094320.847000",
          "094320.850000",
          "094320.852000",
          "094320.855000",
          "094320.859000",
          "094325.842000",
          "094325.845000",
          "094325.848000",
          "094325.850000",
          "094325.853000",
          "094325.856000",
          "094325.859000",
          "094330.841000",
          "094330.844000",
          "094330.852000",
          "094330.855000",
          "094330.858000",
          "094330.861000",
          "094330.864000",
          "094335.841000",
          "094335.844000",
          "094335.847000",
          "094335.850000",
          "094335.853000",
          "094335.855000",
          "094335.858000",
          "094340.842000",
          "094340.845000",
          "094340.848000",
          "094340.851000",
          "094340.853000",
          "094340.863000",
          "094340.866000",
          "094345.841000",
          "094345.844000",
          "094345.847000",
          "094345.850000",
          "094345.853000",
          "094345.855000",
          "094345.858000",
          "094350.841000",
          "094350.844000",
          "094350.847000",
          "094350.850000",
          "094350.853000",
          "094350.856000",
          "094350.860000",
          "094355.841000",
          "094355.844000",
          "094355.847000",
          "094355.850000",
          "094355.853000",
          "094355.856000",
          "094355.859000",
          "094355.861000",
          "094400.842000",
          "094400.845000",
          "094400.848000",
          "094400.851000",
          "094400.854000",
          "094400.857000",
          "094400.859000",
          "094405.841000",
          "094405.844000",
          "094405.847000",
          "094405.850000",
          "094405.852000",
          "094405.855000",
          "094405.858000",
          "094410.841000",
          "094410.844000",
          "094410.847000",
          "094410.850000",
          "094410.852000",
          "094410.855000",
          "094410.858000",
          "094415.842000",
          "094415.845000",
          "094415.848000",
          "094415.851000",
          "094415.854000",
          "094415.857000",
          "094415.859000",
          "094420.841000",
          "094420.844000",
          "094420.847000",
          "094420.850000",
          "094420.852000",
          "094420.855000",
          "094420.858000",
          "094425.841000",
          "094425.844000",
          "094425.847000",
          "094425.850000",
          "094425.853000",
          "094425.855000",
          "094425.858000",
          "094430.841000",
          "094430.844000",
          "094430.847000",
          "094430.849000",
          "094430.852000",
          "094430.855000",
          "094430.858000",
          "094435.842000",
          "094435.845000",
          "094435.848000",
          "094435.851000",
          "094435.854000",
          "094435.857000",
          "094435.860000",
          "094440.841000",
          "094440.862000",
          "094440.865000",
          "094440.868000",
          "094440.871000",
          "094440.874000",
          "094440.877000",
          "094440.880000",
          "094445.841000",
          "094445.844000",
          "094445.847000",
          "094445.850000",
          "094445.853000",
          "094445.856000",
          "094445.858000",
          "094450.842000",
          "094450.845000",
          "094450.848000",
          "094450.862000",
          "094450.865000",
          "094450.868000",
          "094450.871000",
          "094455.841000",
          "094455.844000",
          "094455.847000",
          "094455.850000",
          "094455.852000",
          "094455.855000",
          "094455.858000",
          "094500.841000",
          "094500.844000",
          "094500.847000",
          "094500.850000",
          "094500.853000",
          "094500.856000",
          "094500.858000",
          "094505.841000",
          "094505.844000",
          "094505.847000",
          "094505.850000",
          "094505.852000",
          "094505.855000",
          "094505.858000",
          "094510.842000",
          "094510.845000",
          "094510.857000",
          "094510.860000",
          "094510.863000",
          "094510.866000",
          "094510.869000",
          "094515.841000",
          "094515.844000",
          "094515.847000",
          "094515.850000",
          "094515.853000",
          "094515.856000",
          "094515.859000",
          "094520.841000",
          "094520.844000",
          "094520.847000",
          "094520.850000",
          "094520.853000",
          "094520.856000",
          "094523.207000",
          "094523.210000",
          "094523.213000"
        ],
        "InstanceCreationTime": [
          "094310.869000",
          "094310.873000",
          "094310.876000",
          "094310.879000",
          "094310.881000",
          "094310.884000",
          "094315.841000",
          "094315.844000",
          "094315.847000",
          "094315.850000",
          "094315.853000",
          "094315.856000",
          "094315.858000",
          "094320.841000",
          "094320.844000",
          "094320.847000",
          "094320.850000",
          "094320.852000",
          "094320.855000",
          "094320.859000",
          "094325.842000",
          "094325.845000",
          "094325.848000",
          "094325.850000",
          "094325.853000",
          "094325.856000",
          "094325.859000",
          "094330.841000",
          "094330.844000",
          "094330.852000",
          "094330.855000",
          "094330.858000",
          "094330.861000",
          "094330.864000",
          "094335.841000",
          "094335.844000",
          "094335.847000",
          "094335.850000",
          "094335.853000",
          "094335.855000",
          "094335.858000",
          "094340.842000",
          "094340.845000",
          "094340.848000",
          "094340.851000",
          "094340.853000",
          "094340.863000",
          "094340.866000",
          "094345.841000",
          "094345.844000",
          "094345.847000",
          "094345.850000",
          "094345.853000",
          "094345.855000",
          "094345.858000",
          "094350.841000",
          "094350.844000",
          "094350.847000",
          "094350.850000",
          "094350.853000",
          "094350.856000",
          "094350.860000",
          "094355.841000",
          "094355.844000",
          "094355.847000",
          "094355.850000",
          "094355.853000",
          "094355.856000",
          "094355.859000",
          "094355.861000",
          "094400.842000",
          "094400.845000",
          "094400.848000",
          "094400.851000",
          "094400.854000",
          "094400.857000",
          "094400.859000",
          "094405.841000",
          "094405.844000",
          "094405.847000",
          "094405.850000",
          "094405.852000",
          "094405.855000",
          "094405.858000",
          "094410.841000",
          "094410.844000",
          "094410.847000",
          "094410.850000",
          "094410.852000",
          "094410.855000",
          "094410.858000",
          "094415.842000",
          "094415.845000",
          "094415.848000",
          "094415.851000",
          "094415.854000",
          "094415.857000",
          "094415.859000",
          "094420.841000",
          "094420.844000",
          "094420.847000",
          "094420.850000",
          "094420.852000",
          "094420.855000",
          "094420.858000",
          "094425.841000",
          "094425.844000",
          "094425.847000",
          "094425.850000",
          "094425.853000",
          "094425.855000",
          "094425.858000",
          "094430.841000",
          "094430.844000",
          "094430.847000",
          "094430.849000",
          "094430.852000",
          "094430.855000",
          "094430.858000",
          "094435.842000",
          "094435.845000",
          "094435.848000",
          "094435.851000",
          "094435.854000",
          "094435.857000",
          "094435.860000",
          "094440.841000",
          "094440.862000",
          "094440.865000",
          "094440.868000",
          "094440.871000",
          "094440.874000",
          "094440.877000",
          "094440.880000",
          "094445.841000",
          "094445.844000",
          "094445.847000",
          "094445.850000",
          "094445.853000",
          "094445.856000",
          "094445.858000",
          "094450.842000",
          "094450.845000",
          "094450.848000",
          "094450.862000",
          "094450.865000",
          "094450.868000",
          "094450.871000",
          "094455.841000",
          "094455.844000",
          "094455.847000",
          "094455.850000",
          "094455.852000",
          "094455.855000",
          "094455.858000",
          "094500.841000",
          "094500.844000",
          "094500.847000",
          "094500.850000",
          "094500.853000",
          "094500.856000",
          "094500.858000",
          "094505.841000",
          "094505.844000",
          "094505.847000",
          "094505.850000",
          "094505.852000",
          "094505.855000",
          "094505.858000",
          "094510.842000",
          "094510.845000",
          "094510.857000",
          "094510.860000",
          "094510.863000",
          "094510.866000",
          "094510.869000",
          "094515.841000",
          "094515.844000",
          "094515.847000",
          "094515.850000",
          "094515.853000",
          "094515.856000",
          "094515.859000",
          "094520.841000",
          "094520.844000",
          "094520.847000",
          "094520.850000",
          "094520.853000",
          "094520.856000",
          "094523.207000",
          "094523.210000",
          "094523.213000"
        ],
        "InstanceNumber": [
          1,
          2,
          3,
          4,
          5,
          6,
          7,
          8,
          9,
          10,
          11,
          12,
          13,
          14,
          15,
          16,
          17,
          18,
          19,
          20,
          21,
          22,
          23,
          24,
          25,
          26,
          27,
          28,
          29,
          30,
          31,
          32,
          33,
          34,
          35,
          36,
          37,
          38,
          39,
          40,
          41,
          42,
          43,
          44,
          45,
          46,
          47,
          48,
          49,
          50,
          51,
          52,
          53,
          54,
          55,
          56,
          57,
          58,
          59,
          60,
          61,
          62,
          63,
          64,
          65,
          66,
          67,
          68,
          69,
          70,
          71,
          72,
          73,
          74,
          75,
          76,
          77,
          78,
          79,
          80,
          81,
          82,
          83,
          84,
          85,
          86,
          87,
          88,
          89,
          90,
          91,
          92,
          93,
          94,
          95,
          96,
          97,
          98,
          99,
          100,
          101,
          102,
          103,
          104,
          105,
          106,
          107,
          108,
          109,
          110,
          111,
          112,
          113,
          114,
          115,
          116,
          117,
          118,
          119,
          120,
          121,
          122,
          123,
          124,
          125,
          126,
          127,
          128,
          129,
          130,
          131,
          132,
          133,
          134,
          135,
          136,
          137,
          138,
          139,
          140,
          141,
          142,
          143,
          144,
          145,
          146,
          147,
          148,
          149,
          150,
          151,
          152,
          153,
          154,
          155,
          156,
          157,
          158,
          159,
          160,
          161,
          162,
          163,
          164,
          165,
          166,
          167,
          168,
          169,
          170,
          171,
          172,
          173,
          174,
          175,
          176,
          177,
          178,
          179,
          180,
          181,
          182,
          183,
          184,
          185,
          186,
          187,
          188,
          189,
          190,
          191,
          192
        ],
        "LargestImagePixelValue": [
          30396,
          28294,
          29752,
          28982,
          27852,
          26918,
          26587,
          27122,
          27048,
          31326,
          26624,
          29807,
          26735,
          26539,
          26734,
          26645,
          26955,
          26850,
          26574,
          26884,
          26834,
          27009,
          29552,
          28106,
          26967,
          30219,
          26875,
          26991,
          27555,
          27611,
          27482,
          30903,
          29690,
          28627,
          27511,
          27881,
          27252,
          27292,
          27197,
          27072,
          27044,
          26852,
          26980,
          27220,
          30422,
          27770,
          26840,
          27059,
          28727,
          26754,
          26582,
          27047,
          26625,
          26273,
          26472,
          31298,
          28243,
          27210,
          30186,
          26712,
          26891,
          26888,
          26683,
          26932,
          27134,
          27270,
          27107,
          27000,
          27021,
          26797,
          29094,
          26824,
          27192,
          29680,
          28111,
          27603,
          26915,
          30478,
          27602,
          26923,
          27424,
          26789,
          26723,
