{
  "aor": 0.006615937499999999,
  "aqi": 0.01175151265625,
  "bids_meta": {
    "AcquisitionMatrixPE": 104,
    "AcquisitionNumber": 1,
    "AcquisitionTime": "09:46:33.495000",
    "BandwidthPerPixelPhaseEncode": 16.578,
    "BaseResolution": 104,
    "BodyPartExamined": "BRAIN",
    "CogAtlasID": "TODO",
    "ConsistencyInfo": "N4_VE11C_LATEST_20160120",
    "ConversionSoftware": "dcm2niix",
    "ConversionSoftwareVersion": "v1.0.20190902",
    "DerivedVendorReportedEchoSpacing": 0.000580009,
    "DeviceSerialNumber": "166018",
    "DwellTime": 2.1e-06,
    "EchoTime": 0.037,
    "EchoTrainLength": 104,
    "EffectiveEchoSpacing": 0.000580009,
    "FlipAngle": 68,
    "ImageComments": "Unaliased_MB6_PE3_LB",
    "ImageOrientationPatientDICOM": [
      0.998427,
      -0.0552852,
      0.00938103,
      0.0559955,
      0.974023,
      -0.219418
    ],
    "ImageType": [
      "ORIGINAL",
      "PRIMARY",
      "M",
      "MB",
      "ND",
      "MOSAIC"
    ],
    "ImagingFrequency": 123.191,
    "InPlanePhaseEncodingDirectionDICOM": "COL",
    "InstitutionAddress": "Washington_Place_6_NYC_NYC_US_10003",
    "InstitutionName": "NYU_-_CBI",
    "InstitutionalDepartmentName": "Department",
    "MRAcquisitionType": "2D",
    "MagneticFieldStrength": 3,
    "Manufacturer": "Siemens",
    "ManufacturersModelName": "Prisma",
    "Modality": "MR",
    "MultibandAccelerationFactor": 6,
    "NumberOfVolumes": 192,
    "PartialFourier": 1,
    "PatientPosition": "HFS",
    "PercentPhaseFOV": 100,
    "PhaseEncodingDirection": "j",
    "PhaseEncodingSteps": 104,
    "PhaseResolution": 1,
    "PixelBandwidth": 2290,
    "ProcedureStepDescription": "Investigators_Winawer",
    "ProtocolName": "cmrr_mbepi_s6_2mm_66sl_PA_task-prf",
    "PulseSequenceDetails": "%CustomerSeq%_cmrr_mbep2d_bold",
    "ReceiveCoilActiveElements": "HC1-7",
    "ReceiveCoilName": "HeadNeck_64",
    "ReconMatrixPE": 104,
    "RepetitionTime": 1,
    "SAR": 0.0611204,
    "ScanOptions": "FS",
    "ScanningSequence": "EP",
    "SequenceName": "epfid2d1_104",
    "SequenceVariant": "SK_SS",
    "SeriesDescription": "cmrr_mbepi_s6_2mm_66sl_PA_task-prf",
    "SeriesNumber": 18,
    "ShimSetting": [
      287,
      -12608,
      -8480,
      480,
      34,
      -213,
      -122,
      -75
    ],
    "SliceThickness": 2,
    "SliceTiming": [
      0,
      0.5325,
      0.0875,
      0.6225,
      0.1775,
      0.7125,
      0.2675,
      0.8,
      0.355,
      0.89,
      0.445,
      0,
      0.5325,
      0.0875,
      0.6225,
      0.1775,
      0.7125,
      0.2675,
      0.8,
      0.355,
      0.89,
      0.445,
      0,
      0.5325,
      0.0875,
      0.6225,
      0.1775,
      0.7125,
      0.2675,
      0.8,
      0.355,
      0.89,
      0.445,
      0,
      0.5325,
      0.0875,
      0.6225,
      0.1775,
      0.7125,
      0.2675,
      0.8,
      0.355,
      0.89,
      0.445,
      0,
      0.5325,
      0.0875,
      0.6225,
      0.1775,
      0.7125,
      0.2675,
      0.8,
      0.355,
      0.89,
      0.445,
      0,
      0.5325,
      0.0875,
      0.6225,
      0.1775,
      0.7125,
      0.2675,
      0.8,
      0.355,
      0.89,
      0.445
    ],
    "SoftwareVersions": "syngo_MR_E11",
    "SpacingBetweenSlices": 2,
    "StationName": "AWP166018",
    "TaskName": "prf",
    "TotalReadoutTime": 0.0597409,
    "TxRefAmp": 211.783,
    "WipMemBlock": "94b1d645-8d5f-4886-b8a5-4465e820678a||Sequence: R016 ve11c/master r/8780670; Nov 27 2017 15:05:12 by eja",
    "acq_id": "PA",
    "dataset": "unknown",
    "dcmmeta_affine": [
      [
        -1.9968531131744385,
        0.11199100315570831,
        -0.005986477714031935,
        104.43470764160156
      ],
      [
        0.11057037860155106,
        1.9480453729629517,
        -0.4391964077949524,
        -68.59052276611328
      ],
      [
        0.01876205764710903,
        0.43883630633354187,
        1.951171636581421,
        -89.40106201171875
      ],
      [
        0.0,
        0.0,
        0.0,
        1.0
      ]
    ],
    "dcmmeta_reorient_transform": [
      [
        0.0,
        -1.0,
        0.0,
        103.0
      ],
      [
        1.0,
        0.0,
        0.0,
        0.0
      ],
      [
        0.0,
        0.0,
        1.0,
        0.0
      ],
      [
        0.0,
        0.0,
        0.0,
        1.0
      ]
    ],
    "dcmmeta_shape": [
      104,
      104,
      66,
      192
    ],
    "dcmmeta_slice_dim": 2,
    "dcmmeta_version": 0.6,
    "global": {
      "const": {
        "AccessionNumber": "jura7h2e",
        "AcquisitionMatrix": [
          104,
          0,
          0,
          104
        ],
        "AngioFlag": "N",
        "BitsAllocated": 16,
        "BitsStored": 16,
        "BodyPartExamined": "BRAIN",
        "Columns": 936,
        "EchoNumbers": 1,
        "EchoTime": 37.0,
        "EchoTrainLength": 104,
        "FlipAngle": 68.0,
        "HighBit": 15,
        "ImageOrientationPatient": [
          0.99842653421533,
          -0.0552851885032,
          0.00938102909778,
          0.05599550246081,
          0.97402267827199,
          -0.2194181531142
        ],
        "ImagePositionPatient": [
          -993.24891946012,
          -896.44774324343,
          130.54996353343
        ],
        "ImageType": [
          "ORIGINAL",
          "PRIMARY",
          "M",
          "MB",
          "ND",
          "MOSAIC"
        ],
        "ImagedNucleus": "1H",
        "ImagingFrequency": 123.191174,
        "InPlanePhaseEncodingDirection": "COL",
        "MRAcquisitionType": "2D",
        "MagneticFieldStrength": 3.0,
        "Manufacturer": "SIEMENS",
        "ManufacturerModelName": "Prisma",
        "Modality": "MR",
        "NumberOfAverages": 1.0,
        "NumberOfPhaseEncodingSteps": 104,
        "PercentPhaseFieldOfView": 100.0,
        "PercentSampling": 100.0,
        "PerformedProcedureStepStartTime": "090550.678000",
        "PhotometricInterpretation": "MONOCHROME2",
        "PixelBandwidth": 2290.0,
        "PixelRepresentation": 0,
        "PixelSpacing": [
          2.0,
          2.0
        ],
        "ProtocolName": "cmrr_mbepi_s6_2mm_66sl_PA_task-prf",
        "RepetitionTime": 1000.0,
        "Rows": 936,
        "SAR": 0.06112039097795,
        "SamplesPerPixel": 1,
        "ScanOptions": "FS",
        "ScanningSequence": "EP",
        "SequenceName": "epfid2d1_104",
        "SequenceVariant": [
          "SK",
          "SS"
        ],
        "SeriesDescription": "cmrr_mbepi_s6_2mm_66sl_PA_task-prf",
        "SeriesNumber": 18,
        "SeriesTime": "094723.612000",
        "SliceLocation": -72.468651747613,
        "SliceThickness": 2.0,
        "SmallestImagePixelValue": 0,
        "SoftwareVersions": "syngo MR E11",
        "SpacingBetweenSlices": 1.9999999664337,
        "SpecificCharacterSet": "ISO_IR 100",
        "StudyID": "1",
        "StudyTime": "090550.517000",
        "TransmitCoilName": "Body",
        "VariableFlipAngleFlag": "N",
        "WindowCenterWidthExplanation": "Algo1",
        "dBdt": 0.0
      },
      "slices": {}
    },
    "modality": "bold",
    "run_id": 6,
    "session_id": "nyu3t01",
    "subject_id": "wlsubj091",
    "task_id": "prf",
    "time": {
      "samples": {
        "AcquisitionNumber": [
          1,
          2,
          3,
          4,
          5,
          6,
          7,
          8,
          9,
          10,
          11,
          12,
          13,
          14,
          15,
          16,
          17,
          18,
          19,
          20,
          21,
          22,
          23,
          24,
          25,
          26,
          27,
          28,
          29,
          30,
          31,
          32,
          33,
          34,
          35,
          36,
          37,
          38,
          39,
          40,
          41,
          42,
          43,
          44,
          45,
          46,
          47,
          48,
          49,
          50,
          51,
          52,
          53,
          54,
          55,
          56,
          57,
          58,
          59,
          60,
          61,
          62,
          63,
          64,
          65,
          66,
          67,
          68,
          69,
          70,
          71,
          72,
          73,
          74,
          75,
          76,
          77,
          78,
          79,
          80,
          81,
          82,
          83,
          84,
          85,
          86,
          87,
          88,
          89,
          90,
          91,
          92,
          93,
          94,
          95,
          96,
          97,
          98,
          99,
          100,
          101,
          102,
          103,
          104,
          105,
          106,
          107,
          108,
          109,
          110,
          111,
          112,
          113,
          114,
          115,
          116,
          117,
          118,
          119,
          120,
          121,
          122,
          123,
          124,
          125,
          126,
          127,
          128,
          129,
          130,
          131,
          132,
          133,
          134,
          135,
          136,
          137,
          138,
          139,
          140,
          141,
          142,
          143,
          144,
          145,
          146,
          147,
          148,
          149,
          150,
          151,
          152,
          153,
          154,
          155,
          156,
          157,
          158,
          159,
          160,
          161,
          162,
          163,
          164,
          165,
          166,
          167,
          168,
          169,
          170,
          171,
          172,
          173,
          174,
          175,
          176,
          177,
          178,
          179,
          180,
          181,
          182,
          183,
          184,
          185,
          186,
          187,
          188,
          189,
          190,
          191,
          192
        ],
        "AcquisitionTime": [
          "094633.495000",
          "094634.495000",
          "094635.495000",
          "094636.495000",
          "094637.495000",
          "094638.495000",
          "094639.495000",
          "094640.495000",
          "094641.495000",
          "094642.495000",
          "094643.495000",
          "094644.495000",
          "094645.495000",
          "094646.495000",
          "094647.495000",
          "094648.495000",
          "094649.495000",
          "094650.495000",
          "094651.495000",
          "094652.495000",
          "094653.495000",
          "094654.495000",
          "094655.495000",
          "094656.495000",
          "094657.495000",
          "094658.495000",
          "094659.495000",
          "094700.495000",
          "094701.495000",
          "094702.495000",
          "094703.495000",
          "094704.495000",
          "094705.495000",
          "094706.495000",
          "094707.495000",
          "094708.495000",
          "094709.495000",
          "094710.495000",
          "094711.495000",
          "094712.495000",
          "094713.495000",
          "094714.495000",
          "094715.495000",
          "094716.495000",
          "094717.495000",
          "094718.495000",
          "094719.495000",
          "094720.495000",
          "094721.495000",
          "094722.495000",
          "094723.495000",
          "094724.495000",
          "094725.495000",
          "094726.495000",
          "094727.495000",
          "094728.495000",
          "094729.495000",
          "094730.495000",
          "094731.495000",
          "094732.495000",
          "094733.495000",
          "094734.495000",
          "094735.495000",
          "094736.495000",
          "094737.495000",
          "094738.495000",
          "094739.495000",
          "094740.495000",
          "094741.495000",
          "094742.495000",
          "094743.495000",
          "094744.495000",
          "094745.495000",
          "094746.495000",
          "094747.495000",
          "094748.495000",
          "094749.495000",
          "094750.495000",
          "094751.495000",
          "094752.495000",
          "094753.495000",
          "094754.495000",
          "094755.495000",
          "094756.495000",
          "094757.495000",
          "094758.495000",
          "094759.495000",
          "094800.495000",
          "094801.495000",
          "094802.495000",
          "094803.495000",
          "094804.495000",
          "094805.495000",
          "094806.495000",
          "094807.495000",
          "094808.495000",
          "094809.495000",
          "094810.495000",
          "094811.495000",
          "094812.495000",
          "094813.495000",
          "094814.495000",
          "094815.495000",
          "094816.495000",
          "094817.495000",
          "094818.495000",
          "094819.495000",
          "094820.495000",
          "094821.495000",
          "094822.495000",
          "094823.495000",
          "094824.495000",
          "094825.495000",
          "094826.495000",
          "094827.495000",
          "094828.495000",
          "094829.495000",
          "094830.495000",
          "094831.495000",
          "094832.495000",
          "094833.495000",
          "094834.495000",
          "094835.495000",
          "094836.495000",
          "094837.495000",
          "094838.495000",
          "094839.495000",
          "094840.495000",
          "094841.495000",
          "094842.495000",
          "094843.495000",
          "094844.495000",
          "094845.495000",
          "094846.495000",
          "094847.495000",
          "094848.495000",
          "094849.495000",
          "094850.495000",
          "094851.495000",
          "094852.495000",
          "094853.495000",
          "094854.495000",
          "094855.495000",
          "094856.495000",
          "094857.495000",
          "094858.495000",
          "094859.495000",
          "094900.495000",
          "094901.495000",
          "094902.495000",
          "094903.495000",
          "094904.495000",
          "094905.495000",
          "094906.495000",
          "094907.495000",
          "094908.495000",
          "094909.495000",
          "094910.495000",
          "094911.495000",
          "094912.495000",
          "094913.495000",
          "094914.495000",
          "094915.495000",
          "094916.495000",
          "094917.495000",
          "094918.495000",
          "094919.495000",
          "094920.495000",
          "094921.495000",
          "094922.495000",
          "094923.495000",
          "094924.495000",
          "094925.495000",
          "094926.495000",
          "094927.495000",
          "094928.495000",
          "094929.495000",
          "094930.495000",
          "094931.495000",
          "094932.495000",
          "094933.495000",
          "094934.495000",
          "094935.495000",
          "094936.495000",
          "094937.495000",
          "094938.495000",
          "094939.495000",
          "094940.495000",
          "094941.495000",
          "094942.495000",
          "094943.495000",
          "094944.495000"
        ],
        "ContentTime": [
          "094723.614000",
          "094723.618000",
          "094728.583000",
          "094728.586000",
          "094728.589000",
          "094728.592000",
          "094728.595000",
          "094728.598000",
          "094728.600000",
          "094733.582000",
          "094733.585000",
          "094733.588000",
          "094733.593000",
          "094733.596000",
          "094733.599000",
          "094733.602000",
          "094738.582000",
          "094738.585000",
          "094738.588000",
          "094738.591000",
          "094738.597000",
          "094738.599000",
          "094738.602000",
          "094743.582000",
          "094743.585000",
          "094743.588000",
          "094743.591000",
          "094743.594000",
          "094743.603000",
          "094743.605000",
          "094748.584000",
          "094748.588000",
          "094748.591000",
          "094748.594000",
          "094748.596000",
          "094748.599000",
          "094748.602000",
          "094753.582000",
          "094753.585000",
          "094753.588000",
          "094753.591000",
          "094753.594000",
          "094753.597000",
          "094753.599000",
          "094758.582000",
          "094758.585000",
          "094758.588000",
          "094758.591000",
          "094758.594000",
          "094758.597000",
          "094758.599000",
          "094803.583000",
          "094803.586000",
          "094803.589000",
          "094803.592000",
          "094803.594000",
          "094803.597000",
          "094803.608000",
          "094808.582000",
          "094808.585000",
          "094808.588000",
          "094808.591000",
          "094808.594000",
          "094808.597000",
          "094808.600000",
          "094813.582000",
          "094813.585000",
          "094813.588000",
          "094813.591000",
          "094813.594000",
          "094813.597000",
          "094813.599000",
          "094818.582000",
          "094818.585000",
          "094818.588000",
          "094818.591000",
          "094818.594000",
          "094818.596000",
          "094818.599000",
          "094823.583000",
          "094823.586000",
          "094823.589000",
          "094823.592000",
          "094823.595000",
          "094823.598000",
          "094823.601000",
          "094828.582000",
          "094828.585000",
          "094828.588000",
          "094828.591000",
          "094828.594000",
          "094828.597000",
          "094828.600000",
          "094833.582000",
          "094833.585000",
          "094833.588000",
          "094833.591000",
          "094833.594000",
          "094833.597000",
          "094833.600000",
          "094833.603000",
          "094838.583000",
          "094838.586000",
          "094838.589000",
          "094838.592000",
          "094838.595000",
          "094838.598000",
          "094838.601000",
          "094843.582000",
          "094843.585000",
          "094843.588000",
          "094843.591000",
          "094843.594000",
          "094843.596000",
          "094843.599000",
          "094848.582000",
          "094848.585000",
          "094848.588000",
          "094848.591000",
          "094848.594000",
          "094848.607000",
          "094848.609000",
          "094853.582000",
          "094853.585000",
          "094853.588000",
          "094853.591000",
          "094853.594000",
          "094853.596000",
          "094853.599000",
          "094858.583000",
          "094858.586000",
          "094858.589000",
          "094858.592000",
          "094858.595000",
          "094858.598000",
          "094858.600000",
          "094903.582000",
          "094903.585000",
          "094903.588000",
          "094903.591000",
          "094903.594000",
          "094903.597000",
          "094903.600000",
          "094908.582000",
          "094908.585000",
          "094908.588000",
          "094908.591000",
          "094908.594000",
          "094908.597000",
          "094908.600000",
          "094913.583000",
          "094913.586000",
          "094913.589000",
          "094913.592000",
          "094913.595000",
          "094913.598000",
          "094913.600000",
          "094918.582000",
          "094918.585000",
          "094918.588000",
          "094918.591000",
          "094918.594000",
          "094918.597000",
          "094918.600000",
          "094923.582000",
          "094923.585000",
          "094923.588000",
          "094923.591000",
          "094923.594000",
          "094928.582000",
          "094928.585000",
          "094928.588000",
          "094928.591000",
          "094928.594000",
          "094933.583000",
          "094933.586000",
          "094933.589000",
          "094933.592000",
          "094933.595000",
          "094938.582000",
          "094938.585000",
          "094938.588000",
          "094938.591000",
          "094938.594000",
          "094943.582000",
          "094943.585000",
          "094943.588000",
          "094943.591000",
          "094943.594000",
          "094945.970000",
          "094945.973000",
          "094945.976000"
        ],
        "InstanceCreationTime": [
          "094723.614000",
          "094723.618000",
          "094728.583000",
          "094728.586000",
          "094728.589000",
          "094728.592000",
          "094728.595000",
          "094728.598000",
          "094728.600000",
          "094733.582000",
          "094733.585000",
          "094733.588000",
          "094733.593000",
          "094733.596000",
          "094733.599000",
          "094733.602000",
          "094738.582000",
          "094738.585000",
          "094738.588000",
          "094738.591000",
          "094738.597000",
          "094738.599000",
          "094738.602000",
          "094743.582000",
          "094743.585000",
          "094743.588000",
          "094743.591000",
          "094743.594000",
          "094743.603000",
          "094743.605000",
          "094748.584000",
          "094748.588000",
          "094748.591000",
          "094748.594000",
          "094748.596000",
          "094748.599000",
          "094748.602000",
          "094753.582000",
          "094753.585000",
          "094753.588000",
          "094753.591000",
          "094753.594000",
          "094753.597000",
          "094753.599000",
          "094758.582000",
          "094758.585000",
          "094758.588000",
          "094758.591000",
          "094758.594000",
          "094758.597000",
          "094758.599000",
          "094803.583000",
          "094803.586000",
          "094803.589000",
          "094803.592000",
          "094803.594000",
          "094803.597000",
          "094803.608000",
          "094808.582000",
          "094808.585000",
          "094808.588000",
          "094808.591000",
          "094808.594000",
          "094808.597000",
          "094808.600000",
          "094813.582000",
          "094813.585000",
          "094813.588000",
          "094813.591000",
          "094813.594000",
          "094813.597000",
          "094813.599000",
          "094818.582000",
          "094818.585000",
          "094818.588000",
          "094818.591000",
          "094818.594000",
          "094818.596000",
          "094818.599000",
          "094823.583000",
          "094823.586000",
          "094823.589000",
          "094823.592000",
          "094823.595000",
          "094823.598000",
          "094823.601000",
          "094828.582000",
          "094828.585000",
          "094828.588000",
          "094828.591000",
          "094828.594000",
          "094828.597000",
          "094828.600000",
          "094833.582000",
          "094833.585000",
          "094833.588000",
          "094833.591000",
          "094833.594000",
          "094833.597000",
          "094833.600000",
          "094833.603000",
          "094838.583000",
          "094838.586000",
          "094838.589000",
          "094838.592000",
          "094838.595000",
          "094838.598000",
          "094838.601000",
          "094843.582000",
          "094843.585000",
          "094843.588000",
          "094843.591000",
          "094843.594000",
          "094843.596000",
          "094843.599000",
          "094848.582000",
          "094848.585000",
          "094848.588000",
          "094848.591000",
          "094848.594000",
          "094848.607000",
          "094848.609000",
          "094853.582000",
          "094853.585000",
          "094853.588000",
          "094853.591000",
          "094853.594000",
          "094853.596000",
          "094853.599000",
          "094858.583000",
          "094858.586000",
          "094858.589000",
          "094858.592000",
          "094858.595000",
          "094858.598000",
          "094858.600000",
          "094903.582000",
          "094903.585000",
          "094903.588000",
          "094903.591000",
          "094903.594000",
          "094903.597000",
          "094903.600000",
          "094908.582000",
          "094908.585000",
          "094908.588000",
          "094908.591000",
          "094908.594000",
          "094908.597000",
          "094908.600000",
          "094913.583000",
          "094913.586000",
          "094913.589000",
          "094913.592000",
          "094913.595000",
          "094913.598000",
          "094913.600000",
          "094918.582000",
          "094918.585000",
          "094918.588000",
          "094918.591000",
          "094918.594000",
          "094918.597000",
          "094918.600000",
          "094923.582000",
          "094923.585000",
          "094923.588000",
          "094923.591000",
          "094923.594000",
          "094928.582000",
          "094928.585000",
          "094928.588000",
          "094928.591000",
          "094928.594000",
          "094933.583000",
          "094933.586000",
          "094933.589000",
          "094933.592000",
          "094933.595000",
          "094938.582000",
          "094938.585000",
          "094938.588000",
          "094938.591000",
          "094938.594000",
          "094943.582000",
          "094943.585000",
          "094943.588000",
          "094943.591000",
          "094943.594000",
          "094945.970000",
          "094945.973000",
          "094945.976000"
        ],
        "InstanceNumber": [
          1,
          2,
          3,
          4,
          5,
          6,
          7,
          8,
          9,
          10,
          11,
          12,
          13,
          14,
          15,
          16,
          17,
          18,
          19,
          20,
          21,
          22,
          23,
          24,
          25,
          26,
          27,
          28,
          29,
          30,
          31,
          32,
          33,
          34,
          35,
          36,
          37,
          38,
          39,
          40,
          41,
          42,
          43,
          44,
          45,
          46,
          47,
          48,
          49,
          50,
          51,
          52,
          53,
          54,
          55,
          56,
          57,
          58,
          59,
          60,
          61,
          62,
          63,
          64,
          65,
          66,
          67,
          68,
          69,
          70,
          71,
          72,
          73,
          74,
          75,
          76,
          77,
          78,
          79,
          80,
          81,
          82,
          83,
          84,
          85,
          86,
          87,
          88,
          89,
          90,
          91,
          92,
          93,
          94,
          95,
          96,
          97,
          98,
          99,
          100,
          101,
          102,
          103,
          104,
          105,
          106,
          107,
          108,
          109,
          110,
          111,
          112,
          113,
          114,
          115,
          116,
          117,
          118,
          119,
          120,
          121,
          122,
          123,
          124,
          125,
          126,
          127,
          128,
          129,
          130,
          131,
          132,
          133,
          134,
          135,
          136,
          137,
          138,
          139,
          140,
          141,
          142,
          143,
          144,
          145,
          146,
          147,
          148,
          149,
          150,
          151,
          152,
          153,
          154,
          155,
          156,
          157,
          158,
          159,
          160,
          161,
          162,
          163,
          164,
          165,
          166,
          167,
          168,
          169,
          170,
          171,
          172,
          173,
          174,
          175,
          176,
          177,
          178,
          179,
          180,
          181,
          182,
          183,
          184,
          185,
          186,
          187,
          188,
          189,
          190,
          191,
          192
        ],
        "LargestImagePixelValue": [
          28793,
          28518,
          27598,
          27257,
          27672,
          27655,
          27780,
          27264,
          27364,
          27138,
          27031,
          27369,
          26954,
          27127,
          27555,
          27060,
          27193,
          27314,
          27147,
          26852,
          28167,
          29029,
          28371,
          28233,
          31215,
          27964,
          27896,
          27702,
          28228,
          27876,
          28094,
          27887,
          27612,
          27943,
          27619,
          27909,
          27614,
          27722,
          27791,
          27856,
          29684,
          30053,
          27650,
          27788,
          27209,
          28428,
          26862,
          26821,
          26862,
          26824,
          27512,
          26054,
          38054,
          30382,
          27627,
          27014,
          27199,
          27372,
          28265,
          31556,
          27376,
          27568,
          27590,
          29807,
          28079,
          28845,
          28175,
          27545,
          28051,
          28553,
          28696,
          28376,
          30818,
          29831,
          31991,
          29308,
          28534,
          28580,
          29222,
          29343,
          27637,
          28004,
          27914,
