{
  "aor": 0.007063333333333332,
  "aqi": 0.010078439166666666,
  "bids_meta": {
    "AcquisitionMatrixPE": 104,
    "AcquisitionNumber": 1,
    "AcquisitionTime": "09:32:22.455000",
    "BandwidthPerPixelPhaseEncode": 16.578,
    "BaseResolution": 104,
    "BodyPartExamined": "BRAIN",
    "CogAtlasID": "TODO",
    "ConsistencyInfo": "N4_VE11C_LATEST_20160120",
    "ConversionSoftware": "dcm2niix",
    "ConversionSoftwareVersion": "v1.0.20190902",
    "DerivedVendorReportedEchoSpacing": 0.000580009,
    "DeviceSerialNumber": "166018",
    "DwellTime": 2.1e-06,
    "EchoTime": 0.037,
    "EchoTrainLength": 104,
    "EffectiveEchoSpacing": 0.000580009,
    "FlipAngle": 68,
    "ImageComments": "Unaliased_MB6_PE3_LB",
    "ImageOrientationPatientDICOM": [
      0.998427,
      -0.0552852,
      0.00938103,
      0.0559955,
      0.974023,
      -0.219418
    ],
    "ImageType": [
      "ORIGINAL",
      "PRIMARY",
      "M",
      "MB",
      "ND",
      "MOSAIC"
    ],
    "ImagingFrequency": 123.191,
    "InPlanePhaseEncodingDirectionDICOM": "COL",
    "InstitutionAddress": "Washington_Place_6_NYC_NYC_US_10003",
    "InstitutionName": "NYU_-_CBI",
    "InstitutionalDepartmentName": "Department",
    "MRAcquisitionType": "2D",
    "MagneticFieldStrength": 3,
    "Manufacturer": "Siemens",
    "ManufacturersModelName": "Prisma",
    "Modality": "MR",
    "MultibandAccelerationFactor": 6,
    "NumberOfVolumes": 192,
    "PartialFourier": 1,
    "PatientPosition": "HFS",
    "PercentPhaseFOV": 100,
    "PhaseEncodingDirection": "j",
    "PhaseEncodingSteps": 104,
    "PhaseResolution": 1,
    "PixelBandwidth": 2290,
    "ProcedureStepDescription": "Investigators_Winawer",
    "ProtocolName": "cmrr_mbepi_s6_2mm_66sl_PA_task-prf",
    "PulseSequenceDetails": "%CustomerSeq%_cmrr_mbep2d_bold",
    "ReceiveCoilActiveElements": "HC1-7",
    "ReceiveCoilName": "HeadNeck_64",
    "ReconMatrixPE": 104,
    "RepetitionTime": 1,
    "SAR": 0.0611204,
    "ScanOptions": "FS",
    "ScanningSequence": "EP",
    "SequenceName": "epfid2d1_104",
    "SequenceVariant": "SK_SS",
    "SeriesDescription": "cmrr_mbepi_s6_2mm_66sl_PA_task-prf",
    "SeriesNumber": 12,
    "ShimSetting": [
      287,
      -12608,
      -8480,
      480,
      34,
      -213,
      -122,
      -75
    ],
    "SliceThickness": 2,
    "SliceTiming": [
      0,
      0.535,
      0.09,
      0.625,
      0.18,
      0.7125,
      0.2675,
      0.8025,
      0.3575,
      0.8925,
      0.4475,
      0,
      0.535,
      0.09,
      0.625,
      0.18,
      0.7125,
      0.2675,
      0.8025,
      0.3575,
      0.8925,
      0.4475,
      0,
      0.535,
      0.09,
      0.625,
      0.18,
      0.7125,
      0.2675,
      0.8025,
      0.3575,
      0.8925,
      0.4475,
      0,
      0.535,
      0.09,
      0.625,
      0.18,
      0.7125,
      0.2675,
      0.8025,
      0.3575,
      0.8925,
      0.4475,
      0,
      0.535,
      0.09,
      0.625,
      0.18,
      0.7125,
      0.2675,
      0.8025,
      0.3575,
      0.8925,
      0.4475,
      0,
      0.535,
      0.09,
      0.625,
      0.18,
      0.7125,
      0.2675,
      0.8025,
      0.3575,
      0.8925,
      0.4475
    ],
    "SoftwareVersions": "syngo_MR_E11",
    "SpacingBetweenSlices": 2,
    "StationName": "AWP166018",
    "TaskName": "prf",
    "TotalReadoutTime": 0.0597409,
    "TxRefAmp": 211.783,
    "WipMemBlock": "94b1d645-8d5f-4886-b8a5-4465e820678a||Sequence: R016 ve11c/master r/8780670; Nov 27 2017 15:05:12 by eja",
    "acq_id": "PA",
    "dataset": "unknown",
    "dcmmeta_affine": [
      [
        -1.9968531131744385,
        0.11199100315570831,
        -0.005986477714031935,
        104.43470764160156
      ],
      [
        0.11057037860155106,
        1.9480453729629517,
        -0.4391964077949524,
        -68.59052276611328
      ],
      [
        0.01876205764710903,
        0.43883630633354187,
        1.951171636581421,
        -89.40106201171875
      ],
      [
        0.0,
        0.0,
        0.0,
        1.0
      ]
    ],
    "dcmmeta_reorient_transform": [
      [
        0.0,
        -1.0,
        0.0,
        103.0
      ],
      [
        1.0,
        0.0,
        0.0,
        0.0
      ],
      [
        0.0,
        0.0,
        1.0,
        0.0
      ],
      [
        0.0,
        0.0,
        0.0,
        1.0
      ]
    ],
    "dcmmeta_shape": [
      104,
      104,
      66,
      192
    ],
    "dcmmeta_slice_dim": 2,
    "dcmmeta_version": 0.6,
    "global": {
      "const": {
        "AccessionNumber": "jura7h2e",
        "AcquisitionMatrix": [
          104,
          0,
          0,
          104
        ],
        "AngioFlag": "N",
        "BitsAllocated": 16,
        "BitsStored": 16,
        "BodyPartExamined": "BRAIN",
        "Columns": 936,
        "EchoNumbers": 1,
        "EchoTime": 37.0,
        "EchoTrainLength": 104,
        "FlipAngle": 68.0,
        "HighBit": 15,
        "ImageOrientationPatient": [
          0.99842653421533,
          -0.0552851885032,
          0.00938102909778,
          0.05599550246081,
          0.97402267827199,
          -0.2194181531142
        ],
        "ImagePositionPatient": [
          -993.24891946012,
          -896.44774324343,
          130.54996353343
        ],
        "ImageType": [
          "ORIGINAL",
          "PRIMARY",
          "M",
          "MB",
          "ND",
          "MOSAIC"
        ],
        "ImagedNucleus": "1H",
        "ImagingFrequency": 123.191174,
        "InPlanePhaseEncodingDirection": "COL",
        "MRAcquisitionType": "2D",
        "MagneticFieldStrength": 3.0,
        "Manufacturer": "SIEMENS",
        "ManufacturerModelName": "Prisma",
        "Modality": "MR",
        "NumberOfAverages": 1.0,
        "NumberOfPhaseEncodingSteps": 104,
        "PercentPhaseFieldOfView": 100.0,
        "PercentSampling": 100.0,
        "PerformedProcedureStepStartTime": "090550.678000",
        "PhotometricInterpretation": "MONOCHROME2",
        "PixelBandwidth": 2290.0,
        "PixelRepresentation": 0,
        "PixelSpacing": [
          2.0,
          2.0
        ],
        "ProtocolName": "cmrr_mbepi_s6_2mm_66sl_PA_task-prf",
        "RepetitionTime": 1000.0,
        "Rows": 936,
        "SAR": 0.06112039097795,
        "SamplesPerPixel": 1,
        "ScanOptions": "FS",
        "ScanningSequence": "EP",
        "SequenceName": "epfid2d1_104",
        "SequenceVariant": [
          "SK",
          "SS"
        ],
        "SeriesDescription": "cmrr_mbepi_s6_2mm_66sl_PA_task-prf",
        "SeriesNumber": 12,
        "SeriesTime": "093312.559000",
        "SliceLocation": -72.468651747613,
        "SliceThickness": 2.0,
        "SmallestImagePixelValue": 0,
        "SoftwareVersions": "syngo MR E11",
        "SpacingBetweenSlices": 1.9999999664337,
        "SpecificCharacterSet": "ISO_IR 100",
        "StudyID": "1",
        "StudyTime": "090550.517000",
        "TransmitCoilName": "Body",
        "VariableFlipAngleFlag": "N",
        "WindowCenterWidthExplanation": "Algo1",
        "dBdt": 0.0
      },
      "slices": {}
    },
    "modality": "bold",
    "run_id": 3,
    "session_id": "nyu3t01",
    "subject_id": "wlsubj091",
    "task_id": "prf",
    "time": {
      "samples": {
        "AcquisitionNumber": [
          1,
          2,
          3,
          4,
          5,
          6,
          7,
          8,
          9,
          10,
          11,
          12,
          13,
          14,
          15,
          16,
          17,
          18,
          19,
          20,
          21,
          22,
          23,
          24,
          25,
          26,
          27,
          28,
          29,
          30,
          31,
          32,
          33,
          34,
          35,
          36,
          37,
          38,
          39,
          40,
          41,
          42,
          43,
          44,
          45,
          46,
          47,
          48,
          49,
          50,
          51,
          52,
          53,
          54,
          55,
          56,
          57,
          58,
          59,
          60,
          61,
          62,
          63,
          64,
          65,
          66,
          67,
          68,
          69,
          70,
          71,
          72,
          73,
          74,
          75,
          76,
          77,
          78,
          79,
          80,
          81,
          82,
          83,
          84,
          85,
          86,
          87,
          88,
          89,
          90,
          91,
          92,
          93,
          94,
          95,
          96,
          97,
          98,
          99,
          100,
          101,
          102,
          103,
          104,
          105,
          106,
          107,
          108,
          109,
          110,
          111,
          112,
          113,
          114,
          115,
          116,
          117,
          118,
          119,
          120,
          121,
          122,
          123,
          124,
          125,
          126,
          127,
          128,
          129,
          130,
          131,
          132,
          133,
          134,
          135,
          136,
          137,
          138,
          139,
          140,
          141,
          142,
          143,
          144,
          145,
          146,
          147,
          148,
          149,
          150,
          151,
          152,
          153,
          154,
          155,
          156,
          157,
          158,
          159,
          160,
          161,
          162,
          163,
          164,
          165,
          166,
          167,
          168,
          169,
          170,
          171,
          172,
          173,
          174,
          175,
          176,
          177,
          178,
          179,
          180,
          181,
          182,
          183,
          184,
          185,
          186,
          187,
          188,
          189,
          190,
          191,
          192
        ],
        "AcquisitionTime": [
          "093222.455000",
          "093223.455000",
          "093224.455000",
          "093225.455000",
          "093226.455000",
          "093227.455000",
          "093228.455000",
          "093229.455000",
          "093230.455000",
          "093231.455000",
          "093232.455000",
          "093233.455000",
          "093234.455000",
          "093235.455000",
          "093236.455000",
          "093237.455000",
          "093238.455000",
          "093239.455000",
          "093240.455000",
          "093241.455000",
          "093242.455000",
          "093243.455000",
          "093244.455000",
          "093245.455000",
          "093246.455000",
          "093247.455000",
          "093248.455000",
          "093249.455000",
          "093250.455000",
          "093251.455000",
          "093252.455000",
          "093253.455000",
          "093254.455000",
          "093255.455000",
          "093256.455000",
          "093257.455000",
          "093258.455000",
          "093259.455000",
          "093300.455000",
          "093301.455000",
          "093302.455000",
          "093303.455000",
          "093304.455000",
          "093305.455000",
          "093306.455000",
          "093307.455000",
          "093308.455000",
          "093309.455000",
          "093310.455000",
          "093311.455000",
          "093312.455000",
          "093313.455000",
          "093314.455000",
          "093315.455000",
          "093316.455000",
          "093317.455000",
          "093318.455000",
          "093319.455000",
          "093320.455000",
          "093321.455000",
          "093322.455000",
          "093323.455000",
          "093324.455000",
          "093325.455000",
          "093326.455000",
          "093327.455000",
          "093328.455000",
          "093329.455000",
          "093330.455000",
          "093331.455000",
          "093332.455000",
          "093333.455000",
          "093334.455000",
          "093335.455000",
          "093336.455000",
          "093337.455000",
          "093338.455000",
          "093339.455000",
          "093340.455000",
          "093341.455000",
          "093342.455000",
          "093343.455000",
          "093344.455000",
          "093345.455000",
          "093346.455000",
          "093347.455000",
          "093348.455000",
          "093349.455000",
          "093350.455000",
          "093351.455000",
          "093352.455000",
          "093353.455000",
          "093354.455000",
          "093355.455000",
          "093356.455000",
          "093357.455000",
          "093358.455000",
          "093359.455000",
          "093400.455000",
          "093401.455000",
          "093402.455000",
          "093403.455000",
          "093404.455000",
          "093405.455000",
          "093406.455000",
          "093407.455000",
          "093408.455000",
          "093409.455000",
          "093410.455000",
          "093411.455000",
          "093412.455000",
          "093413.455000",
          "093414.455000",
          "093415.455000",
          "093416.455000",
          "093417.455000",
          "093418.455000",
          "093419.455000",
          "093420.455000",
          "093421.455000",
          "093422.455000",
          "093423.455000",
          "093424.455000",
          "093425.455000",
          "093426.455000",
          "093427.455000",
          "093428.455000",
          "093429.455000",
          "093430.455000",
          "093431.455000",
          "093432.455000",
          "093433.455000",
          "093434.455000",
          "093435.455000",
          "093436.455000",
          "093437.455000",
          "093438.455000",
          "093439.455000",
          "093440.455000",
          "093441.455000",
          "093442.455000",
          "093443.455000",
          "093444.455000",
          "093445.455000",
          "093446.455000",
          "093447.455000",
          "093448.455000",
          "093449.455000",
          "093450.455000",
          "093451.455000",
          "093452.455000",
          "093453.455000",
          "093454.455000",
          "093455.455000",
          "093456.455000",
          "093457.455000",
          "093458.455000",
          "093459.455000",
          "093500.455000",
          "093501.455000",
          "093502.455000",
          "093503.455000",
          "093504.455000",
          "093505.455000",
          "093506.455000",
          "093507.455000",
          "093508.455000",
          "093509.455000",
          "093510.455000",
          "093511.455000",
          "093512.455000",
          "093513.455000",
          "093514.455000",
          "093515.455000",
          "093516.455000",
          "093517.455000",
          "093518.455000",
          "093519.455000",
          "093520.455000",
          "093521.455000",
          "093522.455000",
          "093523.455000",
          "093524.455000",
          "093525.455000",
          "093526.455000",
          "093527.455000",
          "093528.455000",
          "093529.455000",
          "093530.455000",
          "093531.455000",
          "093532.455000",
          "093533.455000"
        ],
        "ContentTime": [
          "093312.563000",
          "093312.567000",
          "093317.531000",
          "093317.534000",
          "093317.537000",
          "093317.540000",
          "093317.543000",
          "093317.550000",
          "093317.553000",
          "093322.530000",
          "093322.533000",
          "093322.536000",
          "093322.539000",
          "093322.543000",
          "093322.549000",
          "093322.552000",
          "093327.531000",
          "093327.534000",
          "093327.537000",
          "093327.540000",
          "093327.543000",
          "093327.546000",
          "093327.548000",
          "093332.531000",
          "093332.534000",
          "093332.537000",
          "093332.540000",
          "093332.550000",
          "093332.553000",
          "093332.556000",
          "093337.531000",
          "093337.534000",
          "093337.537000",
          "093337.540000",
          "093337.543000",
          "093337.546000",
          "093337.549000",
          "093342.530000",
          "093342.533000",
          "093342.536000",
          "093342.539000",
          "093342.542000",
          "093342.545000",
          "093342.547000",
          "093347.531000",
          "093347.534000",
          "093347.537000",
          "093347.540000",
          "093347.543000",
          "093347.546000",
          "093347.549000",
          "093352.531000",
          "093352.534000",
          "093352.537000",
          "093352.540000",
          "093352.543000",
          "093352.546000",
          "093352.548000",
          "093357.530000",
          "093357.533000",
          "093357.536000",
          "093357.539000",
          "093357.542000",
          "093357.545000",
          "093357.548000",
          "093357.550000",
          "093402.531000",
          "093402.534000",
          "093402.537000",
          "093402.541000",
          "093402.544000",
          "093402.547000",
          "093407.531000",
          "093407.534000",
          "093407.537000",
          "093407.540000",
          "093407.543000",
          "093407.546000",
          "093407.548000",
          "093407.551000",
          "093412.531000",
          "093412.534000",
          "093412.537000",
          "093412.540000",
          "093412.543000",
          "093412.546000",
          "093412.549000",
          "093417.530000",
          "093417.533000",
          "093417.536000",
          "093417.539000",
          "093417.542000",
          "093417.545000",
          "093417.547000",
          "093422.531000",
          "093422.534000",
          "093422.537000",
          "093422.540000",
          "093422.543000",
          "093422.546000",
          "093422.549000",
          "093427.531000",
          "093427.534000",
          "093427.537000",
          "093427.540000",
          "093427.543000",
          "093427.546000",
          "093427.549000",
          "093432.530000",
          "093432.533000",
          "093432.536000",
          "093432.539000",
          "093432.542000",
          "093432.544000",
          "093432.547000",
          "093437.531000",
          "093437.534000",
          "093437.537000",
          "093437.540000",
          "093437.543000",
          "093437.546000",
          "093437.549000",
          "093442.531000",
          "093442.534000",
          "093442.537000",
          "093442.540000",
          "093442.543000",
          "093442.546000",
          "093442.549000",
          "093447.531000",
          "093447.534000",
          "093447.537000",
          "093447.540000",
          "093447.543000",
          "093447.545000",
          "093447.548000",
          "093452.530000",
          "093452.533000",
          "093452.536000",
          "093452.539000",
          "093452.542000",
          "093452.545000",
          "093452.547000",
          "093457.531000",
          "093457.534000",
          "093457.537000",
          "093457.540000",
          "093457.543000",
          "093457.546000",
          "093457.549000",
          "093502.531000",
          "093502.534000",
          "093502.537000",
          "093502.540000",
          "093502.543000",
          "093502.546000",
          "093502.564000",
          "093507.530000",
          "093507.533000",
          "093507.536000",
          "093507.539000",
          "093507.542000",
          "093507.545000",
          "093507.547000",
          "093512.531000",
          "093512.534000",
          "093512.537000",
          "093512.540000",
          "093512.543000",
          "093517.531000",
          "093517.534000",
          "093517.537000",
          "093517.540000",
          "093517.543000",
          "093522.531000",
          "093522.534000",
          "093522.537000",
          "093522.540000",
          "093522.543000",
          "093527.530000",
          "093527.533000",
          "093527.536000",
          "093527.539000",
          "093527.542000",
          "093532.531000",
          "093532.534000",
          "093532.537000",
          "093532.540000",
          "093532.543000",
          "093534.892000",
          "093534.895000",
          "093534.898000"
        ],
        "InstanceCreationTime": [
          "093312.563000",
          "093312.567000",
          "093317.531000",
          "093317.534000",
          "093317.537000",
          "093317.540000",
          "093317.543000",
          "093317.550000",
          "093317.553000",
          "093322.530000",
          "093322.533000",
          "093322.536000",
          "093322.539000",
          "093322.543000",
          "093322.549000",
          "093322.552000",
          "093327.531000",
          "093327.534000",
          "093327.537000",
          "093327.540000",
          "093327.543000",
          "093327.546000",
          "093327.548000",
          "093332.531000",
          "093332.534000",
          "093332.537000",
          "093332.540000",
          "093332.550000",
          "093332.553000",
          "093332.556000",
          "093337.531000",
          "093337.534000",
          "093337.537000",
          "093337.540000",
          "093337.543000",
          "093337.546000",
          "093337.549000",
          "093342.530000",
          "093342.533000",
          "093342.536000",
          "093342.539000",
          "093342.542000",
          "093342.545000",
          "093342.547000",
          "093347.531000",
          "093347.534000",
          "093347.537000",
          "093347.540000",
          "093347.543000",
          "093347.546000",
          "093347.549000",
          "093352.531000",
          "093352.534000",
          "093352.537000",
          "093352.540000",
          "093352.543000",
          "093352.546000",
          "093352.548000",
          "093357.530000",
          "093357.533000",
          "093357.536000",
          "093357.539000",
          "093357.542000",
          "093357.545000",
          "093357.548000",
          "093357.550000",
          "093402.531000",
          "093402.534000",
          "093402.537000",
          "093402.541000",
          "093402.544000",
          "093402.547000",
          "093407.531000",
          "093407.534000",
          "093407.537000",
          "093407.540000",
          "093407.543000",
          "093407.546000",
          "093407.548000",
          "093407.551000",
          "093412.531000",
          "093412.534000",
          "093412.537000",
          "093412.540000",
          "093412.543000",
          "093412.546000",
          "093412.549000",
          "093417.530000",
          "093417.533000",
          "093417.536000",
          "093417.539000",
          "093417.542000",
          "093417.545000",
          "093417.547000",
          "093422.531000",
          "093422.534000",
          "093422.537000",
          "093422.540000",
          "093422.543000",
          "093422.546000",
          "093422.549000",
          "093427.531000",
          "093427.534000",
          "093427.537000",
          "093427.540000",
          "093427.543000",
          "093427.546000",
          "093427.549000",
          "093432.530000",
          "093432.533000",
          "093432.536000",
          "093432.539000",
          "093432.542000",
          "093432.544000",
          "093432.547000",
          "093437.531000",
          "093437.534000",
          "093437.537000",
          "093437.540000",
          "093437.543000",
          "093437.546000",
          "093437.549000",
          "093442.531000",
          "093442.534000",
          "093442.537000",
          "093442.540000",
          "093442.543000",
          "093442.546000",
          "093442.549000",
          "093447.531000",
          "093447.534000",
          "093447.537000",
          "093447.540000",
          "093447.543000",
          "093447.545000",
          "093447.548000",
          "093452.530000",
          "093452.533000",
          "093452.536000",
          "093452.539000",
          "093452.542000",
          "093452.545000",
          "093452.547000",
          "093457.531000",
          "093457.534000",
          "093457.537000",
          "093457.540000",
          "093457.543000",
          "093457.546000",
          "093457.549000",
          "093502.531000",
          "093502.534000",
          "093502.537000",
          "093502.540000",
          "093502.543000",
          "093502.546000",
          "093502.564000",
          "093507.530000",
          "093507.533000",
          "093507.536000",
          "093507.539000",
          "093507.542000",
          "093507.545000",
          "093507.547000",
          "093512.531000",
          "093512.534000",
          "093512.537000",
          "093512.540000",
          "093512.543000",
          "093517.531000",
          "093517.534000",
          "093517.537000",
          "093517.540000",
          "093517.543000",
          "093522.531000",
          "093522.534000",
          "093522.537000",
          "093522.540000",
          "093522.543000",
          "093527.530000",
          "093527.533000",
          "093527.536000",
          "093527.539000",
          "093527.542000",
          "093532.531000",
          "093532.534000",
          "093532.537000",
          "093532.540000",
          "093532.543000",
          "093534.892000",
          "093534.895000",
          "093534.898000"
        ],
        "InstanceNumber": [
          1,
          2,
          3,
          4,
          5,
          6,
          7,
          8,
          9,
          10,
          11,
          12,
          13,
          14,
          15,
          16,
          17,
          18,
          19,
          20,
          21,
          22,
          23,
          24,
          25,
          26,
          27,
          28,
          29,
          30,
          31,
          32,
          33,
          34,
          35,
          36,
          37,
          38,
          39,
          40,
          41,
          42,
          43,
          44,
          45,
          46,
          47,
          48,
          49,
          50,
          51,
          52,
          53,
          54,
          55,
          56,
          57,
          58,
          59,
          60,
          61,
          62,
          63,
          64,
          65,
          66,
          67,
          68,
          69,
          70,
          71,
          72,
          73,
          74,
          75,
          76,
          77,
          78,
          79,
          80,
          81,
          82,
          83,
          84,
          85,
          86,
          87,
          88,
          89,
          90,
          91,
          92,
          93,
          94,
          95,
          96,
          97,
          98,
          99,
          100,
          101,
          102,
          103,
          104,
          105,
          106,
          107,
          108,
          109,
          110,
          111,
          112,
          113,
          114,
          115,
          116,
          117,
          118,
          119,
          120,
          121,
          122,
          123,
          124,
          125,
          126,
          127,
          128,
          129,
          130,
          131,
          132,
          133,
          134,
          135,
          136,
          137,
          138,
          139,
          140,
          141,
          142,
          143,
          144,
          145,
          146,
          147,
          148,
          149,
          150,
          151,
          152,
          153,
          154,
          155,
          156,
          157,
          158,
          159,
          160,
          161,
          162,
          163,
          164,
          165,
          166,
          167,
          168,
          169,
          170,
          171,
          172,
          173,
          174,
          175,
          176,
          177,
          178,
          179,
          180,
          181,
          182,
          183,
          184,
          185,
          186,
          187,
          188,
          189,
          190,
          191,
          192
        ],
        "LargestImagePixelValue": [
          30920,
          30228,
          28899,
          28422,
          32825,
          29901,
          28659,
          28911,
          27787,
          27559,
          28737,
          28327,
          28402,
          28910,
          28803,
          28482,
          29374,
          25624,
          31757,
          29723,
          26359,
          28396,
          28143,
          28951,
          32440,
          27380,
          28740,
          26832,
          27520,
          27294,
          30189,
          28673,
          27723,
          27441,
          27778,
          28328,
          27766,
          28530,
          28215,
          27944,
          28183,
          29136,
          32199,
          29687,
          29670,
          29370,
          29282,
          29455,
          28600,
          33354,
          28716,
          29049,
          28695,
          29701,
          28646,
          31686,
          28156,
          28535,
          28343,
          28317,
          28948,
          31171,
          28518,
          28717,
          29050,
          29387,
          28686,
          28187,
          28659,
          29303,
          31774,
          29917,
          29445,
          28819,
          28624,
          28478,
          28701,
          27737,
          29380,
          28414,
          28573,
          30067,
