{
  "aor": 0.00048083333333333333,
  "aqi": 0.005538768333333333,
  "bids_meta": {
    "AcquisitionMatrixPE": 104,
    "AcquisitionNumber": 1,
    "AcquisitionTime": "13:02:55.577500",
    "BandwidthPerPixelPhaseEncode": 16.578,
    "BaseResolution": 104,
    "BodyPartExamined": "BRAIN",
    "CogAtlasID": "TODO",
    "ConsistencyInfo": "N4_VE11C_LATEST_20160120",
    "ConversionSoftware": "dcm2niix",
    "ConversionSoftwareVersion": "v1.0.20190902",
    "DerivedVendorReportedEchoSpacing": 0.000580009,
    "DeviceSerialNumber": "166018",
    "DwellTime": 2.1e-06,
    "EchoTime": 0.037,
    "EchoTrainLength": 104,
    "EffectiveEchoSpacing": 0.000580009,
    "FlipAngle": 68,
    "ImageComments": "Unaliased_MB6_PE3_LB",
    "ImageOrientationPatientDICOM": [
      0.999487,
      0.0261597,
      -0.018501,
      -0.0287911,
      0.986645,
      -0.160318
    ],
    "ImageType": [
      "ORIGINAL",
      "PRIMARY",
      "M",
      "MB",
      "ND",
      "MOSAIC"
    ],
    "ImagingFrequency": 123.191,
    "InPlanePhaseEncodingDirectionDICOM": "COL",
    "InstitutionAddress": "Washington_Place_6_NYC_NYC_US_10003",
    "InstitutionName": "NYU_Center_for_Brain_Imaging",
    "InstitutionalDepartmentName": "Department",
    "MRAcquisitionType": "2D",
    "MagneticFieldStrength": 3,
    "Manufacturer": "Siemens",
    "ManufacturersModelName": "Prisma",
    "Modality": "MR",
    "MultibandAccelerationFactor": 6,
    "NumberOfVolumes": 192,
    "PartialFourier": 1,
    "PatientPosition": "HFS",
    "PercentPhaseFOV": 100,
    "PhaseEncodingDirection": "j",
    "PhaseEncodingSteps": 104,
    "PhaseResolution": 1,
    "PixelBandwidth": 2290,
    "ProcedureStepDescription": "Investigators_Winawer",
    "ProtocolName": "cmrr_mbepi_s6_2mm_66sl_PA_TR1.0",
    "PulseSequenceDetails": "%CustomerSeq%_cmrr_mbep2d_bold",
    "ReceiveCoilActiveElements": "HC1-7",
    "ReceiveCoilName": "HeadNeck_64",
    "ReconMatrixPE": 104,
    "RepetitionTime": 1,
    "SAR": 0.0625584,
    "ScanOptions": "FS",
    "ScanningSequence": "EP",
    "SequenceName": "epfid2d1_104",
    "SequenceVariant": "SK_SS",
    "SeriesDescription": "cmrr_mbepi_s6_2mm_66sl_PA_TR1.0",
    "SeriesNumber": 10,
    "ShimSetting": [
      257,
      -12631,
      -8447,
      449,
      1,
      -16,
      86,
      38
    ],
    "SliceThickness": 2,
    "SliceTiming": [
      0,
      0.5325,
      0.0875,
      0.6225,
      0.1775,
      0.7125,
      0.265,
      0.8,
      0.355,
      0.89,
      0.445,
      0,
      0.5325,
      0.0875,
      0.6225,
      0.1775,
      0.7125,
      0.265,
      0.8,
      0.355,
      0.89,
      0.445,
      0,
      0.5325,
      0.0875,
      0.6225,
      0.1775,
      0.7125,
      0.265,
      0.8,
      0.355,
      0.89,
      0.445,
      0,
      0.5325,
      0.0875,
      0.6225,
      0.1775,
      0.7125,
      0.265,
      0.8,
      0.355,
      0.89,
      0.445,
      0,
      0.5325,
      0.0875,
      0.6225,
      0.1775,
      0.7125,
      0.265,
      0.8,
      0.355,
      0.89,
      0.445,
      0,
      0.5325,
      0.0875,
      0.6225,
      0.1775,
      0.7125,
      0.265,
      0.8,
      0.355,
      0.89,
      0.445
    ],
    "SoftwareVersions": "syngo_MR_E11",
    "SpacingBetweenSlices": 2,
    "StationName": "AWP166018",
    "TaskName": "prf",
    "TotalReadoutTime": 0.0597409,
    "TxRefAmp": 214.37,
    "WipMemBlock": "72f3eaf0-b49b-457d-b3d0-501efc8f7122||Sequence: ve11c/master r/ab69a6c; Apr 19 2017 09:47:47 by eja",
    "acq_id": "PA",
    "dataset": "unknown",
    "dcmmeta_affine": [
      [
        -1.9989731311798096,
        -0.05758224427700043,
        -0.02812008000910282,
        113.10984802246094
      ],
      [
        -0.05231931060552597,
        1.9732909202575684,
        -0.32153627276420593,
        -77.13788604736328
      ],
      [
        -0.03700193762779236,
        0.320635586977005,
        1.97378408908844,
        -64.35639953613281
      ],
      [
        0.0,
        0.0,
        0.0,
        1.0
      ]
    ],
    "dcmmeta_reorient_transform": [
      [
        0.0,
        -1.0,
        0.0,
        103.0
      ],
      [
        1.0,
        0.0,
        0.0,
        0.0
      ],
      [
        0.0,
        0.0,
        1.0,
        0.0
      ],
      [
        0.0,
        0.0,
        0.0,
        1.0
      ]
    ],
    "dcmmeta_shape": [
      104,
      104,
      66,
      192
    ],
    "dcmmeta_slice_dim": 2,
    "dcmmeta_version": 0.6,
    "global": {
      "const": {
        "AccessionNumber": "j94gwt7u",
        "AcquisitionMatrix": [
          104,
          0,
          0,
          104
        ],
        "AngioFlag": "N",
        "BitsAllocated": 16,
        "BitsStored": 16,
        "BodyPartExamined": "BRAIN",
        "Columns": 936,
        "EchoNumbers": 1,
        "EchoTime": 37.0,
        "EchoTrainLength": 104,
        "FlipAngle": 68.0,
        "HighBit": 15,
        "ImageOrientationPatient": [
          0.99948656147083,
          0.02615965539129,
          -0.0185009694077,
          -0.0287911223546,
          0.98664546758569,
          -0.1603177861816
        ],
        "ImagePositionPatient": [
          -914.79748492973,
          -968.76494538722,
          117.44626990449
        ],
        "ImageType": [
          "ORIGINAL",
          "PRIMARY",
          "M",
          "MB",
          "ND",
          "MOSAIC"
        ],
        "ImagedNucleus": "1H",
        "ImagingFrequency": 123.191212,
        "InPlanePhaseEncodingDirection": "COL",
        "MRAcquisitionType": "2D",
        "MagneticFieldStrength": 3.0,
        "Manufacturer": "SIEMENS",
        "ManufacturerModelName": "Prisma",
        "Modality": "MR",
        "NumberOfAverages": 1.0,
        "NumberOfPhaseEncodingSteps": 104,
        "PercentPhaseFieldOfView": 100.0,
        "PercentSampling": 100.0,
        "PerformedProcedureStepStartTime": "124416.153000",
        "PhotometricInterpretation": "MONOCHROME2",
        "PixelBandwidth": 2290.0,
        "PixelRepresentation": 0,
        "PixelSpacing": [
          2.0,
          2.0
        ],
        "ProtocolName": "cmrr_mbepi_s6_2mm_66sl_PA_TR1.0",
        "RepetitionTime": 1000.0,
        "Rows": 936,
        "SAR": 0.0625584192918,
        "SamplesPerPixel": 1,
        "ScanOptions": "FS",
        "ScanningSequence": "EP",
        "SequenceName": "epfid2d1_104",
        "SequenceVariant": [
          "SK",
          "SS"
        ],
        "SeriesDescription": "cmrr_mbepi_s6_2mm_66sl_PA_TR1.0",
        "SeriesNumber": 10,
        "SeriesTime": "130400.012000",
        "SliceLocation": -52.70183357968,
        "SliceThickness": 2.0,
        "SmallestImagePixelValue": 0,
        "SoftwareVersions": "syngo MR E11",
        "SpacingBetweenSlices": 2.0000000044048,
        "SpecificCharacterSet": "ISO_IR 100",
        "StudyID": "2",
        "StudyTime": "124416.101000",
        "TransmitCoilName": "Body",
        "VariableFlipAngleFlag": "N",
        "WindowCenterWidthExplanation": "Algo1",
        "dBdt": 0.0
      },
      "slices": {}
    },
    "modality": "bold",
    "run_id": 2,
    "session_id": "nyu3t01",
    "subject_id": "wlsubj001",
    "task_id": "prf",
    "time": {
      "samples": {
        "AcquisitionNumber": [
          1,
          2,
          3,
          4,
          5,
          6,
          7,
          8,
          9,
          10,
          11,
          12,
          13,
          14,
          15,
          16,
          17,
          18,
          19,
          20,
          21,
          22,
          23,
          24,
          25,
          26,
          27,
          28,
          29,
          30,
          31,
          32,
          33,
          34,
          35,
          36,
          37,
          38,
          39,
          40,
          41,
          42,
          43,
          44,
          45,
          46,
          47,
          48,
          49,
          50,
          51,
          52,
          53,
          54,
          55,
          56,
          57,
          58,
          59,
          60,
          61,
          62,
          63,
          64,
          65,
          66,
          67,
          68,
          69,
          70,
          71,
          72,
          73,
          74,
          75,
          76,
          77,
          78,
          79,
          80,
          81,
          82,
          83,
          84,
          85,
          86,
          87,
          88,
          89,
          90,
          91,
          92,
          93,
          94,
          95,
          96,
          97,
          98,
          99,
          100,
          101,
          102,
          103,
          104,
          105,
          106,
          107,
          108,
          109,
          110,
          111,
          112,
          113,
          114,
          115,
          116,
          117,
          118,
          119,
          120,
          121,
          122,
          123,
          124,
          125,
          126,
          127,
          128,
          129,
          130,
          131,
          132,
          133,
          134,
          135,
          136,
          137,
          138,
          139,
          140,
          141,
          142,
          143,
          144,
          145,
          146,
          147,
          148,
          149,
          150,
          151,
          152,
          153,
          154,
          155,
          156,
          157,
          158,
          159,
          160,
          161,
          162,
          163,
          164,
          165,
          166,
          167,
          168,
          169,
          170,
          171,
          172,
          173,
          174,
          175,
          176,
          177,
          178,
          179,
          180,
          181,
          182,
          183,
          184,
          185,
          186,
          187,
          188,
          189,
          190,
          191,
          192
        ],
        "AcquisitionTime": [
          "130255.577500",
          "130256.577500",
          "130257.577500",
          "130258.577500",
          "130259.577500",
          "130300.577500",
          "130301.577500",
          "130302.577500",
          "130303.577500",
          "130304.577500",
          "130305.577500",
          "130306.577500",
          "130307.577500",
          "130308.577500",
          "130309.577500",
          "130310.577500",
          "130311.577500",
          "130312.577500",
          "130313.577500",
          "130314.577500",
          "130315.577500",
          "130316.577500",
          "130317.577500",
          "130318.577500",
          "130319.577500",
          "130320.577500",
          "130321.577500",
          "130322.577500",
          "130323.577500",
          "130324.577500",
          "130325.577500",
          "130326.577500",
          "130327.577500",
          "130328.577500",
          "130329.577500",
          "130330.577500",
          "130331.577500",
          "130332.577500",
          "130333.577500",
          "130334.577500",
          "130335.577500",
          "130336.577500",
          "130337.577500",
          "130338.577500",
          "130339.577500",
          "130340.577500",
          "130341.577500",
          "130342.577500",
          "130343.577500",
          "130344.577500",
          "130345.577500",
          "130346.577500",
          "130347.577500",
          "130348.577500",
          "130349.577500",
          "130350.577500",
          "130351.577500",
          "130352.577500",
          "130353.577500",
          "130354.577500",
          "130355.577500",
          "130356.577500",
          "130357.577500",
          "130358.577500",
          "130359.577500",
          "130400.577500",
          "130401.577500",
          "130402.577500",
          "130403.577500",
          "130404.577500",
          "130405.577500",
          "130406.577500",
          "130407.577500",
          "130408.577500",
          "130409.577500",
          "130410.577500",
          "130411.577500",
          "130412.577500",
          "130413.577500",
          "130414.577500",
          "130415.577500",
          "130416.577500",
          "130417.577500",
          "130418.577500",
          "130419.577500",
          "130420.577500",
          "130421.577500",
          "130422.577500",
          "130423.577500",
          "130424.577500",
          "130425.577500",
          "130426.577500",
          "130427.577500",
          "130428.577500",
          "130429.577500",
          "130430.577500",
          "130431.577500",
          "130432.577500",
          "130433.577500",
          "130434.577500",
          "130435.577500",
          "130436.577500",
          "130437.577500",
          "130438.577500",
          "130439.577500",
          "130440.577500",
          "130441.577500",
          "130442.577500",
          "130443.577500",
          "130444.577500",
          "130445.577500",
          "130446.577500",
          "130447.577500",
          "130448.577500",
          "130449.577500",
          "130450.577500",
          "130451.577500",
          "130452.577500",
          "130453.577500",
          "130454.577500",
          "130455.577500",
          "130456.577500",
          "130457.577500",
          "130458.577500",
          "130459.577500",
          "130500.577500",
          "130501.577500",
          "130502.577500",
          "130503.577500",
          "130504.577500",
          "130505.577500",
          "130506.577500",
          "130507.577500",
          "130508.577500",
          "130509.577500",
          "130510.577500",
          "130511.577500",
          "130512.577500",
          "130513.577500",
          "130514.577500",
          "130515.577500",
          "130516.577500",
          "130517.577500",
          "130518.577500",
          "130519.577500",
          "130520.577500",
          "130521.577500",
          "130522.577500",
          "130523.577500",
          "130524.577500",
          "130525.577500",
          "130526.577500",
          "130527.577500",
          "130528.577500",
          "130529.577500",
          "130530.577500",
          "130531.577500",
          "130532.577500",
          "130533.577500",
          "130534.577500",
          "130535.577500",
          "130536.577500",
          "130537.577500",
          "130538.577500",
          "130539.577500",
          "130540.577500",
          "130541.577500",
          "130542.577500",
          "130543.577500",
          "130544.577500",
          "130545.577500",
          "130546.577500",
          "130547.577500",
          "130548.577500",
          "130549.577500",
          "130550.577500",
          "130551.577500",
          "130552.577500",
          "130553.577500",
          "130554.577500",
          "130555.577500",
          "130556.577500",
          "130557.577500",
          "130558.577500",
          "130559.577500",
          "130600.577500",
          "130601.577500",
          "130602.577500",
          "130603.577500",
          "130604.577500",
          "130605.577500",
          "130606.577500"
        ],
        "ContentTime": [
          "130400.016000",
          "130400.019000",
          "130400.022000",
          "130400.034000",
          "130400.037000",
          "130400.040000",
          "130400.043000",
          "130400.046000",
          "130400.049000",
          "130400.052000",
          "130400.055000",
          "130400.058000",
          "130400.061000",
          "130400.064000",
          "130400.067000",
          "130400.070000",
          "130400.073000",
          "130400.076000",
          "130400.079000",
          "130400.082000",
          "130400.085000",
          "130400.088000",
          "130400.091000",
          "130419.979000",
          "130419.982000",
          "130419.985000",
          "130419.988000",
          "130419.991000",
          "130419.994000",
          "130419.996000",
          "130420.001000",
          "130420.009000",
          "130420.012000",
          "130420.014000",
          "130420.018000",
          "130420.021000",
          "130420.024000",
          "130420.026000",
          "130420.030000",
          "130420.037000",
          "130420.040000",
          "130420.043000",
          "130420.046000",
          "130420.049000",
          "130420.052000",
          "130420.055000",
          "130420.058000",
          "130420.061000",
          "130420.064000",
          "130420.067000",
          "130420.070000",
          "130420.073000",
          "130439.979000",
          "130439.982000",
          "130439.985000",
          "130439.988000",
          "130439.991000",
          "130439.994000",
          "130439.997000",
          "130440.001000",
          "130440.004000",
          "130440.007000",
          "130440.010000",
          "130440.013000",
          "130440.016000",
          "130440.019000",
          "130440.022000",
          "130440.024000",
          "130440.027000",
          "130440.030000",
          "130440.033000",
          "130440.036000",
          "130440.039000",
          "130440.042000",
          "130440.045000",
          "130440.048000",
          "130440.051000",
          "130440.054000",
          "130440.057000",
          "130440.060000",
          "130459.979000",
          "130459.982000",
          "130459.985000",
          "130459.988000",
          "130459.991000",
          "130459.994000",
          "130459.997000",
          "130500.001000",
          "130500.004000",
          "130500.007000",
          "130500.010000",
          "130500.013000",
          "130500.016000",
          "130500.019000",
          "130500.022000",
          "130500.025000",
          "130500.047000",
          "130500.050000",
          "130500.053000",
          "130500.056000",
          "130500.059000",
          "130500.062000",
          "130500.065000",
          "130500.068000",
          "130500.071000",
          "130500.074000",
          "130500.077000",
          "130500.080000",
          "130519.978000",
          "130519.981000",
          "130519.984000",
          "130519.987000",
          "130519.990000",
          "130519.993000",
          "130519.996000",
          "130520.002000",
          "130520.008000",
          "130520.013000",
          "130520.016000",
          "130520.019000",
          "130520.023000",
          "130520.026000",
          "130520.029000",
          "130520.032000",
          "130520.035000",
          "130520.038000",
          "130520.041000",
          "130520.043000",
          "130520.047000",
          "130520.049000",
          "130520.052000",
          "130520.055000",
          "130520.059000",
          "130520.061000",
          "130520.064000",
          "130520.067000",
          "130539.979000",
          "130539.982000",
          "130539.985000",
          "130539.988000",
          "130539.991000",
          "130539.994000",
          "130539.997000",
          "130540.001000",
          "130540.004000",
          "130540.007000",
          "130540.010000",
          "130540.013000",
          "130540.016000",
          "130540.019000",
          "130540.022000",
          "130540.025000",
          "130540.028000",
          "130540.031000",
          "130540.034000",
          "130540.037000",
          "130540.040000",
          "130540.043000",
          "130540.046000",
          "130540.049000",
          "130540.052000",
          "130540.055000",
          "130540.058000",
          "130540.061000",
          "130559.979000",
          "130559.982000",
          "130559.985000",
          "130559.988000",
          "130559.991000",
          "130559.994000",
          "130559.997000",
          "130600.001000",
          "130600.004000",
          "130600.007000",
          "130600.010000",
          "130600.013000",
          "130600.016000",
          "130600.019000",
          "130600.022000",
          "130600.025000",
          "130600.028000",
          "130600.032000",
          "130600.035000",
          "130600.038000",
          "130607.804000",
          "130607.807000",
          "130607.811000",
          "130607.813000",
          "130607.816000",
          "130607.819000",
          "130607.823000",
          "130607.825000"
        ],
        "InstanceCreationTime": [
          "130400.016000",
          "130400.019000",
          "130400.022000",
          "130400.034000",
          "130400.037000",
          "130400.040000",
          "130400.043000",
          "130400.046000",
          "130400.049000",
          "130400.052000",
          "130400.055000",
          "130400.058000",
          "130400.061000",
          "130400.064000",
          "130400.067000",
          "130400.070000",
          "130400.073000",
          "130400.076000",
          "130400.079000",
          "130400.082000",
          "130400.085000",
          "130400.088000",
          "130400.091000",
          "130419.979000",
          "130419.982000",
          "130419.985000",
          "130419.988000",
          "130419.991000",
          "130419.994000",
          "130419.996000",
          "130420.001000",
          "130420.009000",
          "130420.012000",
          "130420.014000",
          "130420.018000",
          "130420.021000",
          "130420.024000",
          "130420.026000",
          "130420.030000",
          "130420.037000",
          "130420.040000",
          "130420.043000",
          "130420.046000",
          "130420.049000",
          "130420.052000",
          "130420.055000",
          "130420.058000",
          "130420.061000",
          "130420.064000",
          "130420.067000",
          "130420.070000",
          "130420.073000",
          "130439.979000",
          "130439.982000",
          "130439.985000",
          "130439.988000",
          "130439.991000",
          "130439.994000",
          "130439.997000",
          "130440.001000",
          "130440.004000",
          "130440.007000",
          "130440.010000",
          "130440.013000",
          "130440.016000",
          "130440.019000",
          "130440.022000",
          "130440.024000",
          "130440.027000",
          "130440.030000",
          "130440.033000",
          "130440.036000",
          "130440.039000",
          "130440.042000",
          "130440.045000",
          "130440.048000",
          "130440.051000",
          "130440.054000",
          "130440.057000",
          "130440.060000",
          "130459.979000",
          "130459.982000",
          "130459.985000",
          "130459.988000",
          "130459.991000",
          "130459.994000",
          "130459.997000",
          "130500.001000",
          "130500.004000",
          "130500.007000",
          "130500.010000",
          "130500.013000",
          "130500.016000",
          "130500.019000",
          "130500.022000",
          "130500.025000",
          "130500.047000",
          "130500.050000",
          "130500.053000",
          "130500.056000",
          "130500.059000",
          "130500.062000",
          "130500.065000",
          "130500.068000",
          "130500.071000",
          "130500.074000",
          "130500.077000",
          "130500.080000",
          "130519.978000",
          "130519.981000",
          "130519.984000",
          "130519.987000",
          "130519.990000",
          "130519.993000",
          "130519.996000",
          "130520.002000",
          "130520.008000",
          "130520.013000",
          "130520.016000",
          "130520.019000",
          "130520.023000",
          "130520.026000",
          "130520.029000",
          "130520.032000",
          "130520.035000",
          "130520.038000",
          "130520.041000",
          "130520.043000",
          "130520.047000",
          "130520.049000",
          "130520.052000",
          "130520.055000",
          "130520.059000",
          "130520.061000",
          "130520.064000",
          "130520.067000",
          "130539.979000",
          "130539.982000",
          "130539.985000",
          "130539.988000",
          "130539.991000",
          "130539.994000",
          "130539.997000",
          "130540.001000",
          "130540.004000",
          "130540.007000",
          "130540.010000",
          "130540.013000",
          "130540.016000",
          "130540.019000",
          "130540.022000",
          "130540.025000",
          "130540.028000",
          "130540.031000",
          "130540.034000",
          "130540.037000",
          "130540.040000",
          "130540.043000",
          "130540.046000",
          "130540.049000",
          "130540.052000",
          "130540.055000",
          "130540.058000",
          "130540.061000",
          "130559.979000",
          "130559.982000",
          "130559.985000",
          "130559.988000",
          "130559.991000",
          "130559.994000",
          "130559.997000",
          "130600.001000",
          "130600.004000",
          "130600.007000",
          "130600.010000",
          "130600.013000",
          "130600.016000",
          "130600.019000",
          "130600.022000",
          "130600.025000",
          "130600.028000",
          "130600.032000",
          "130600.035000",
          "130600.038000",
          "130607.804000",
          "130607.807000",
          "130607.811000",
          "130607.813000",
          "130607.816000",
          "130607.819000",
          "130607.823000",
          "130607.825000"
        ],
        "InstanceNumber": [
          1,
          2,
          3,
          4,
          5,
          6,
          7,
          8,
          9,
          10,
          11,
          12,
          13,
          14,
          15,
          16,
          17,
          18,
          19,
          20,
          21,
          22,
          23,
          24,
          25,
          26,
          27,
          28,
          29,
          30,
          31,
          32,
          33,
          34,
          35,
          36,
          37,
          38,
          39,
          40,
          41,
          42,
          43,
          44,
          45,
          46,
          47,
          48,
          49,
          50,
          51,
          52,
          53,
          54,
          55,
          56,
          57,
          58,
          59,
          60,
          61,
          62,
          63,
          64,
          65,
          66,
          67,
          68,
          69,
          70,
          71,
          72,
          73,
          74,
          75,
          76,
          77,
          78,
          79,
          80,
          81,
          82,
          83,
          84,
          85,
          86,
          87,
          88,
          89,
          90,
          91,
          92,
          93,
          94,
          95,
          96,
          97,
          98,
          99,
          100,
          101,
          102,
          103,
          104,
          105,
          106,
          107,
          108,
          109,
          110,
          111,
          112,
          113,
          114,
          115,
          116,
          117,
          118,
          119,
          120,
          121,
          122,
          123,
          124,
          125,
          126,
          127,
          128,
          129,
          130,
          131,
          132,
          133,
          134,
          135,
          136,
          137,
          138,
          139,
          140,
          141,
          142,
          143,
          144,
          145,
          146,
          147,
          148,
          149,
          150,
          151,
          152,
          153,
          154,
          155,
          156,
          157,
          158,
          159,
          160,
          161,
          162,
          163,
          164,
          165,
          166,
          167,
          168,
          169,
          170,
          171,
          172,
          173,
          174,
          175,
          176,
          177,
          178,
          179,
          180,
          181,
          182,
          183,
          184,
          185,
          186,
          187,
          188,
          189,
          190,
          191,
          192
        ],
        "LargestImagePixelValue": [
          37038,
          36386,
          35826,
          35939,
          35712,
          35877,
          35457,
          35742,
          35509,
          35456,
          35386,
          35005,
          35233,
          34400,
          35467,
          35083,
          35412,
          35627,
          35730,
          36080,
          36207,
          35507,
          35778,
          35911,
          34952,
          35481,
          35502,
          35789,
          35512,
          35874,
          35101,
          34944,
          35250,
          35476,
          35271,
          34872,
          35504,
          35529,
          35703,
          35970,
          35630,
          35991,
          36155,
          35882,
          35755,
          35725,
          35599,
          35914,
          35930,
          35552,
          36271,
          35849,
          35882,
          36178,
          35636,
          35944,
          35812,
          35643,
          35090,
          34603,
          34632,
          34760,
          35060,
          35683,
          36019,
          35885,
          36265,
          36388,
          36234,
          35939,
          35655,
          35573,
          35654,
          35410,
          35847,
          35859,
          36000,
          35386,
          35426,
          35043,
          34952,
          35279,
          35337,
