{
  "AcquisitionMatrixPE": 104,
  "AcquisitionNumber": 1,
  "AcquisitionTime": "17:12:6.432500",
  "BandwidthPerPixelPhaseEncode": 16.578,
  "BaseResolution": 104,
  "BodyPartExamined": "BRAIN",
  "ConsistencyInfo": "N4_VE11C_LATEST_20160120",
  "ConversionSoftware": "dcm2niix",
  "ConversionSoftwareVersion": "v1.0.20190902",
  "DerivedVendorReportedEchoSpacing": 0.000580009,
  "DeviceSerialNumber": "166018",
  "DwellTime": 2.1e-06,
  "EchoTime": 0.037,
  "EchoTrainLength": 104,
  "EffectiveEchoSpacing": 0.000580009,
  "FlipAngle": 68,
  "ImageComments": "Unaliased_MB6_PE3_LB",
  "ImageOrientationPatientDICOM": [0.997185, 0.00162267, -0.0749692, -0.0182764, 0.974876, -0.221999],
  "ImageType": [
    "ORIGINAL",
    "PRIMARY",
    "M",
    "MB",
    "ND",
    "MOSAIC"
],
  "ImagingFrequency": 123.191,
  "InPlanePhaseEncodingDirectionDICOM": "COL",
  "InstitutionAddress": "Washington_Place_6_NYC_NYC_US_10003",
  "InstitutionName": "NYU_-_CBI",
  "InstitutionalDepartmentName": "Department",
  "MRAcquisitionType": "2D",
  "MagneticFieldStrength": 3,
  "Manufacturer": "Siemens",
  "ManufacturersModelName": "Prisma",
  "Modality": "MR",
  "MultibandAccelerationFactor": 6,
  "PartialFourier": 1,
  "PatientPosition": "HFS",
  "PercentPhaseFOV": 100,
  "PhaseEncodingDirection": "j",
  "PhaseEncodingSteps": 104,
  "PhaseResolution": 1,
  "PixelBandwidth": 2290,
  "ProcedureStepDescription": "Investigators_Winawer",
  "ProtocolName": "cmrr_mbepi_task-prf",
  "PulseSequenceDetails": "%CustomerSeq%_cmrr_mbep2d_bold",
  "ReceiveCoilActiveElements": "HC1-7",
  "ReceiveCoilName": "HeadNeck_64",
  "ReconMatrixPE": 104,
  "RepetitionTime": 1,
  "SAR": 0.070109,
  "ScanOptions": "FS",
  "ScanningSequence": "EP",
  "SequenceName": "epfid2d1_104",
  "SequenceVariant": "SK_SS",
  "SeriesDescription": "cmrr_mbepi_task-prf",
  "SeriesNumber": 14,
  "ShimSetting": [255, -12586, -8478, 196, 37, -59, 4, 18],
  "SliceThickness": 2,
  "SliceTiming": [0, 0.535, 0.09, 0.625, 0.18, 0.7125, 0.2675, 0.8025, 0.3575, 0.8925, 0.4475, 0, 0.535, 0.09, 0.625, 0.18, 0.7125, 0.2675, 0.8025, 0.3575, 0.8925, 0.4475, 0, 0.535, 0.09, 0.625, 0.18, 0.7125, 0.2675, 0.8025, 0.3575, 0.8925, 0.4475, 0, 0.535, 0.09, 0.625, 0.18, 0.7125, 0.2675, 0.8025, 0.3575, 0.8925, 0.4475, 0, 0.535, 0.09, 0.625, 0.18, 0.7125, 0.2675, 0.8025, 0.3575, 0.8925, 0.4475, 0, 0.535, 0.09, 0.625, 0.18, 0.7125, 0.2675, 0.8025, 0.3575, 0.8925, 0.4475],
  "SoftwareVersions": "syngo_MR_E11",
  "SpacingBetweenSlices": 2,
  "StationName": "AWP166018",
  "TaskName": "prf",
  "TotalReadoutTime": 0.0597409,
  "TxRefAmp": 235.653,
  "WipMemBlock": "c4dddd9a-789b-4d32-8c28-d81f10193766||Sequence: R016 ve11c/master r/8780670; Nov 27 2017 15:05:12 by eja",
  "dcmmeta_affine": [
    [-1.9943690299987793, -0.036552850157022476, -0.14545075595378876, 112.59915924072266],
    [-0.0032453425228595734, 1.9497512578964233, -0.445487916469574, -69.6710433959961],
    [-0.14993833005428314, 0.4439976215362549, 1.9443210363388062, -70.76173400878906],
    [0.0, 0.0, 0.0, 1.0]
],
  "dcmmeta_reorient_transform": [
    [0.0, -1.0, 0.0, 103.0],
    [1.0, 0.0, 0.0, 0.0],
    [0.0, 0.0, 1.0, 0.0],
    [0.0, 0.0, 0.0, 1.0]
],
  "dcmmeta_shape": [104, 104, 66, 192],
  "dcmmeta_slice_dim": 2,
  "dcmmeta_version": 0.6,
  "global": {
    "const": {
      "AccessionNumber": "jjizxsx9",
      "AcquisitionMatrix": [104, 0, 0, 104],
      "AngioFlag": "N",
      "BitsAllocated": 16,
      "BitsStored": 16,
      "BodyPartExamined": "BRAIN",
      "Columns": 936,
      "EchoNumbers": 1,
      "EchoTime": 37.0,
      "EchoTrainLength": 104,
      "FlipAngle": 68.0,
      "HighBit": 15,
      "ImageOrientationPatient": [0.99718453221082, 0.00162267129405, -0.0749691647103, -0.0182764253168, 0.97487563167389, -0.2219988176682],
      "ImagePositionPatient": [-923.28576000254, -943.59992859154, 222.04738535764],
      "ImageType": [
        "ORIGINAL",
        "PRIMARY",
        "M",
        "MB",
        "ND",
        "MOSAIC"
],
      "ImagedNucleus": "1H",
      "ImagingFrequency": 123.1911,
      "InPlanePhaseEncodingDirection": "COL",
      "MRAcquisitionType": "2D",
      "MagneticFieldStrength": 3.0,
      "Manufacturer": "SIEMENS",
      "ManufacturerModelName": "Prisma",
      "Modality": "MR",
      "NumberOfAverages": 1.0,
      "NumberOfPhaseEncodingSteps": 104,
      "PercentPhaseFieldOfView": 100.0,
      "PercentSampling": 100.0,
      "PerformedProcedureStepStartTime": "163818.334000",
      "PhotometricInterpretation": "MONOCHROME2",
      "PixelBandwidth": 2290.0,
      "PixelRepresentation": 0,
      "PixelSpacing": [2.0, 2.0],
      "ProtocolName": "cmrr_mbepi_task-prf",
      "RepetitionTime": 1000.0,
      "Rows": 936,
      "SAR": 0.07010896385629,
      "SamplesPerPixel": 1,
      "ScanOptions": "FS",
      "ScanningSequence": "EP",
      "SequenceName": "epfid2d1_104",
      "SequenceVariant": [
        "SK",
        "SS"
],
      "SeriesDescription": "cmrr_mbepi_task-prf",
      "SeriesNumber": 14,
      "SeriesTime": "171257.052000",
      "SliceLocation": -61.461778967471,
      "SliceThickness": 2.0,
      "SmallestImagePixelValue": 0,
      "SoftwareVersions": "syngo MR E11",
      "SpacingBetweenSlices": 1.9999999731397,
      "SpecificCharacterSet": "ISO_IR 100",
      "StudyID": "1",
      "StudyTime": "163818.274000",
      "TransmitCoilName": "Body",
      "VariableFlipAngleFlag": "N",
      "WindowCenterWidthExplanation": "Algo1",
      "dBdt": 0.0},
    "slices": {}
  },
  "time": {
    "samples": {
      "AcquisitionNumber": [1, 2, 3, 4, 5, 6, 7, 8, 9, 10, 11, 12, 13, 14, 15, 16, 17, 18, 19, 20, 21, 22, 23, 24, 25, 26, 27, 28, 29, 30, 31, 32, 33, 34, 35, 36, 37, 38, 39, 40, 41, 42, 43, 44, 45, 46, 47, 48, 49, 50, 51, 52, 53, 54, 55, 56, 57, 58, 59, 60, 61, 62, 63, 64, 65, 66, 67, 68, 69, 70, 71, 72, 73, 74, 75, 76, 77, 78, 79, 80, 81, 82, 83, 84, 85, 86, 87, 88, 89, 90, 91, 92, 93, 94, 95, 96, 97, 98, 99, 100, 101, 102, 103, 104, 105, 106, 107, 108, 109, 110, 111, 112, 113, 114, 115, 116, 117, 118, 119, 120, 121, 122, 123, 124, 125, 126, 127, 128, 129, 130, 131, 132, 133, 134, 135, 136, 137, 138, 139, 140, 141, 142, 143, 144, 145, 146, 147, 148, 149, 150, 151, 152, 153, 154, 155, 156, 157, 158, 159, 160, 161, 162, 163, 164, 165, 166, 167, 168, 169, 170, 171, 172, 173, 174, 175, 176, 177, 178, 179, 180, 181, 182, 183, 184, 185, 186, 187, 188, 189, 190, 191, 192],
      "AcquisitionTime": ["171206.432500", "171207.432500", "171208.432500", "171209.432500", "171210.432500", "171211.432500", "171212.432500", "171213.432500", "171214.432500", "171215.432500", "171216.432500", "171217.432500", "171218.432500", "171219.432500", "171220.432500", "171221.432500", "171222.432500", "171223.432500", "171224.432500", "171225.432500", "171226.432500", "171227.432500", "171228.432500", "171229.432500", "171230.432500", "171231.432500", "171232.432500", "171233.432500", "171234.432500", "171235.432500", "171236.432500", "171237.432500", "171238.432500", "171239.432500", "171240.432500", "171241.432500", "171242.432500", "171243.432500", "171244.432500", "171245.432500", "171246.432500", "171247.432500", "171248.432500", "171249.432500", "171250.432500", "171251.432500", "171252.432500", "171253.432500", "171254.432500", "171255.432500", "171256.432500", "171257.432500", "171258.432500", "171259.432500", "171300.432500", "171301.432500", "171302.432500", "171303.432500", "171304.432500", "171305.432500", "171306.432500", "171307.432500", "171308.432500", "171309.432500", "171310.432500", "171311.432500", "171312.432500", "171313.432500", "171314.432500", "171315.432500", "171316.432500", "171317.432500", "171318.432500", "171319.432500", "171320.432500", "171321.432500", "171322.432500", "171323.432500", "171324.432500", "171325.432500", "171326.432500", "171327.432500", "171328.432500", "171329.432500", "171330.432500", "171331.432500", "171332.432500", "171333.432500", "171334.432500", "171335.432500", "171336.432500", "171337.432500", "171338.432500", "171339.432500", "171340.432500", "171341.432500", "171342.432500", "171343.432500", "171344.432500", "171345.432500", "171346.432500", "171347.432500", "171348.432500", "171349.432500", "171350.432500", "171351.432500", "171352.432500", "171353.432500", "171354.432500", "171355.432500", "171356.432500", "171357.432500", "171358.432500", "171359.432500", "171400.432500", "171401.432500", "171402.432500", "171403.432500", "171404.432500", "171405.432500", "171406.432500", "171407.432500", "171408.432500", "171409.432500", "171410.432500", "171411.432500", "171412.432500", "171413.432500", "171414.432500", "171415.432500", "171416.432500", "171417.432500", "171418.432500", "171419.432500", "171420.432500", "171421.432500", "171422.432500", "171423.432500", "171424.432500", "171425.432500", "171426.432500", "171427.432500", "171428.432500", "171429.432500", "171430.432500", "171431.432500", "171432.432500", "171433.432500", "171434.432500", "171435.432500", "171436.432500", "171437.432500", "171438.432500", "171439.432500", "171440.432500", "171441.432500", "171442.432500", "171443.432500", "171444.432500", "171445.432500", "171446.432500", "171447.432500", "171448.432500", "171449.432500", "171450.432500", "171451.432500", "171452.432500", "171453.432500", "171454.432500", "171455.432500", "171456.432500", "171457.432500", "171458.432500", "171459.432500", "171500.432500", "171501.432500", "171502.432500", "171503.432500", "171504.432500", "171505.432500", "171506.432500", "171507.432500", "171508.432500", "171509.432500", "171510.432500", "171511.432500", "171512.432500", "171513.432500", "171514.432500", "171515.432500", "171516.432500", "171517.432500"],
      "ContentTime": ["171257.055000", "171257.058000", "171302.023000", "171302.026000", "171302.029000", "171302.032000", "171302.035000", "171302.038000", "171302.049000", "171307.022000", "171307.035000", "171307.038000", "171307.041000", "171307.051000", "171307.054000", "171307.057000", "171312.023000", "171312.026000", "171312.029000", "171312.032000", "171312.035000", "171312.038000", "171312.041000", "171317.023000", "171317.032000", "171317.035000", "171317.038000", "171317.041000", "171317.043000", "171317.046000", "171322.023000", "171322.026000", "171322.029000", "171322.032000", "171322.035000", "171322.038000", "171322.041000", "171327.022000", "171327.025000", "171327.028000", "171327.031000", "171327.034000", "171327.036000", "171327.039000", "171332.023000", "171332.026000", "171332.029000", "171332.032000", "171332.035000", "171332.038000", "171332.040000", "171337.023000", "171337.026000", "171337.029000", "171337.032000", "171337.035000", "171337.038000", "171337.041000", "171337.043000", "171342.022000", "171342.025000", "171342.028000", "171342.031000", "171342.034000", "171342.037000", "171342.040000", "171347.023000", "171347.026000", "171347.029000", "171347.032000", "171347.035000", "171347.038000", "171347.041000", "171352.023000", "171352.026000", "171352.029000", "171352.032000", "171352.035000", "171352.038000", "171352.041000", "171357.023000", "171357.026000", "171357.029000", "171357.032000", "171357.035000", "171357.038000", "171357.041000", "171402.022000", "171402.031000", "171402.034000", "171402.038000", "171402.040000", "171402.043000", "171402.046000", "171407.023000", "171407.026000", "171407.029000", "171407.032000", "171407.035000", "171407.038000", "171407.041000", "171412.023000", "171412.026000", "171412.029000", "171412.032000", "171412.035000", "171412.038000", "171412.041000", "171417.022000", "171417.025000", "171417.028000", "171417.031000", "171417.034000", "171417.037000", "171417.040000", "171422.023000", "171422.026000", "171422.029000", "171422.032000", "171422.035000", "171422.038000", "171422.041000", "171427.023000", "171427.026000", "171427.029000", "171427.033000", "171427.038000", "171427.042000", "171427.045000", "171432.023000", "171432.026000", "171432.029000", "171432.032000", "171432.035000", "171432.040000", "171432.042000", "171432.045000", "171437.022000", "171437.025000", "171437.028000", "171437.031000", "171437.034000", "171437.037000", "171437.040000", "171442.023000", "171442.026000", "171442.029000", "171442.032000", "171442.035000", "171442.038000", "171442.041000", "171447.023000", "171447.026000", "171447.029000", "171447.032000", "171447.035000", "171447.038000", "171447.041000", "171452.022000", "171452.025000", "171452.028000", "171452.031000", "171452.034000", "171452.037000", "171457.023000", "171457.026000", "171457.029000", "171457.032000", "171457.035000", "171502.023000", "171502.026000", "171502.029000", "171502.032000", "171502.035000", "171507.023000", "171507.026000", "171507.029000", "171507.032000", "171507.035000", "171512.022000", "171512.025000", "171512.028000", "171512.031000", "171512.034000", "171517.023000", "171517.026000", "171517.029000", "171517.032000", "171517.035000", "171519.390000", "171519.394000", "171519.397000"],
      "InstanceCreationTime": ["171257.055000", "171257.058000", "171302.023000", "171302.026000", "171302.029000", "171302.032000", "171302.035000", "171302.038000", "171302.049000", "171307.022000", "171307.035000", "171307.038000", "171307.041000", "171307.051000", "171307.054000", "171307.057000", "171312.023000", "171312.026000", "171312.029000", "171312.032000", "171312.035000", "171312.038000", "171312.041000", "171317.023000", "171317.032000", "171317.035000", "171317.038000", "171317.041000", "171317.043000", "171317.046000", "171322.023000", "171322.026000", "171322.029000", "171322.032000", "171322.035000", "171322.038000", "171322.041000", "171327.022000", "171327.025000", "171327.028000", "171327.031000", "171327.034000", "171327.036000", "171327.039000", "171332.023000", "171332.026000", "171332.029000", "171332.032000", "171332.035000", "171332.038000", "171332.040000", "171337.023000", "171337.026000", "171337.029000", "171337.032000", "171337.035000", "171337.038000", "171337.041000", "171337.043000", "171342.022000", "171342.025000", "171342.028000", "171342.031000", "171342.034000", "171342.037000", "171342.040000", "171347.023000", "171347.026000", "171347.029000", "171347.032000", "171347.035000", "171347.038000", "171347.041000", "171352.023000", "171352.026000", "171352.029000", "171352.032000", "171352.035000", "171352.038000", "171352.041000", "171357.023000", "171357.026000", "171357.029000", "171357.032000", "171357.035000", "171357.038000", "171357.041000", "171402.022000", "171402.031000", "171402.034000", "171402.038000", "171402.040000", "171402.043000", "171402.046000", "171407.023000", "171407.026000", "171407.029000", "171407.032000", "171407.035000", "171407.038000", "171407.041000", "171412.023000", "171412.026000", "171412.029000", "171412.032000", "171412.035000", "171412.038000", "171412.041000", "171417.022000", "171417.025000", "171417.028000", "171417.031000", "171417.034000", "171417.037000", "171417.040000", "171422.023000", "171422.026000", "171422.029000", "171422.032000", "171422.035000", "171422.038000", "171422.041000", "171427.023000", "171427.026000", "171427.029000", "171427.033000", "171427.038000", "171427.042000", "171427.045000", "171432.023000", "171432.026000", "171432.029000", "171432.032000", "171432.035000", "171432.040000", "171432.042000", "171432.045000", "171437.022000", "171437.025000", "171437.028000", "171437.031000", "171437.034000", "171437.037000", "171437.040000", "171442.023000", "171442.026000", "171442.029000", "171442.032000", "171442.035000", "171442.038000", "171442.041000", "171447.023000", "171447.026000", "171447.029000", "171447.032000", "171447.035000", "171447.038000", "171447.041000", "171452.022000", "171452.025000", "171452.028000", "171452.031000", "171452.034000", "171452.037000", "171457.023000", "171457.026000", "171457.029000", "171457.032000", "171457.035000", "171502.023000", "171502.026000", "171502.029000", "171502.032000", "171502.035000", "171507.023000", "171507.026000", "171507.029000", "171507.032000", "171507.035000", "171512.022000", "171512.025000", "171512.028000", "171512.031000", "171512.034000", "171517.023000", "171517.026000", "171517.029000", "171517.032000", "171517.035000", "171519.390000", "171519.394000", "171519.397000"],
      "InstanceNumber": [1, 2, 3, 4, 5, 6, 7, 8, 9, 10, 11, 12, 13, 14, 15, 16, 17, 18, 19, 20, 21, 22, 23, 24, 25, 26, 27, 28, 29, 30, 31, 32, 33, 34, 35, 36, 37, 38, 39, 40, 41, 42, 43, 44, 45, 46, 47, 48, 49, 50, 51, 52, 53, 54, 55, 56, 57, 58, 59, 60, 61, 62, 63, 64, 65, 66, 67, 68, 69, 70, 71, 72, 73, 74, 75, 76, 77, 78, 79, 80, 81, 82, 83, 84, 85, 86, 87, 88, 89, 90, 91, 92, 93, 94, 95, 96, 97, 98, 99, 100, 101, 102, 103, 104, 105, 106, 107, 108, 109, 110, 111, 112, 113, 114, 115, 116, 117, 118, 119, 120, 121, 122, 123, 124, 125, 126, 127, 128, 129, 130, 131, 132, 133, 134, 135, 136, 137, 138, 139, 140, 141, 142, 143, 144, 145, 146, 147, 148, 149, 150, 151, 152, 153, 154, 155, 156, 157, 158, 159, 160, 161, 162, 163, 164, 165, 166, 167, 168, 169, 170, 171, 172, 173, 174, 175, 176, 177, 178, 179, 180, 181, 182, 183, 184, 185, 186, 187, 188, 189, 190, 191, 192],
      "LargestImagePixelValue": [31996, 31028, 33838, 32010, 31630, 31224, 31377, 31573, 31493, 31020, 30857, 30387, 29351, 29108, 29229, 29652, 29082, 29641, 29271, 28939, 28986, 29552, 29270, 28659, 29433, 30303, 30457, 29489, 29517, 29715, 29602, 29743, 29417, 29394, 29224, 30160, 29416, 29729, 28590, 30485, 30334, 30315, 29933, 29898, 29763, 29474, 29541, 28864, 29170, 29574, 29131, 29286, 29741, 29305, 29473, 29401, 29169, 30095, 30050, 29340, 29424, 30056, 29748, 29586, 29043, 29154, 29246, 30010, 29574, 29094, 28752, 29408, 29265, 29493, 29746, 29722, 29863, 29540, 29331, 29464, 28819, 29256, 28795, 29101, 28940, 29217, 29645, 29753, 29532, 29678, 30221, 30199, 29891, 29330, 29277, 29935, 29866, 29352, 29537, 29975, 30008, 30079, 29873, 30119, 30005, 29653, 29687, 29507, 30055, 29756, 29372, 29951, 29809, 30645, 30140, 29509, 29823, 30656, 30050, 29981, 29329, 30416, 30013, 30374, 29424, 30201, 29762, 29669, 30078, 30624, 30207, 30008, 30203, 30622, 29152, 29570, 29329, 29590, 29579, 29375, 29287, 29228, 29282, 29372, 29413, 29785, 29543, 30160, 30604, 30562, 30666, 30143, 29982, 30391, 30213, 31280, 30365, 30487, 30858, 30352, 31079, 30467, 29312, 29438, 29194, 29563, 29479, 29525, 29235, 29080, 29264, 29832, 29258, 29545, 29979, 29417, 29472, 29258, 29550, 29607, 29162, 29699, 30098, 30105, 30448, 29864, 29765, 30193, 29240, 30456, 30015, 29224],
      "WindowCenter": [9543.0, 9497.0, 9509.0, 9491.0, 9497.0, 9512.0, 9530.0, 9529.0, 9513.0, 9496.0, 9486.0, 9468.0, 9440.0, 9435.0, 9434.0, 9438.0, 9432.0, 9438.0, 9432.0, 9427.0, 9434.0, 9456.0, 9460.0, 9469.0, 9484.0, 9504.0, 9515.0, 9511.0, 9506.0, 9502.0, 9501.0, 9487.0, 9476.0, 9466.0, 9449.0, 9471.0, 9483.0, 9465.0, 9475.0, 9507.0, 9519.0, 9498.0, 9475.0, 9457.0, 9455.0, 9446.0, 9444.0, 9442.0, 9457.0, 9466.0, 9476.0, 9475.0, 9473.0, 9473.0, 9482.0, 9490.0, 9495.0, 9517.0, 9515.0, 9502.0, 9503.0, 9506.0, 9492.0, 9483.0, 9468.0, 9468.0, 9459.0, 9469.0, 9457.0, 9448.0, 9458.0, 9473.0, 9474.0, 9474.0, 9480.0, 9471.0, 9471.0, 9457.0, 9457.0, 9455.0, 9442.0, 9447.0, 9442.0, 9448.0, 9449.0, 9457.0, 9481.0, 9489.0, 9485.0, 9508.0, 9515.0, 9498.0, 9492.0, 9492.0, 9486.0, 9499.0, 9484.0, 9476.0, 9472.0, 9471.0, 9459.0, 9443.0, 9442.0, 9439.0, 9440.0, 9442.0, 9452.0, 9446.0, 9459.0, 9461.0, 9456.0, 9464.0, 9471.0, 9484.0, 9480.0, 9477.0, 9501.0, 9531.0, 9528.0, 9532.0, 9526.0, 9538.0, 9530.0, 9519.0, 9505.0, 9498.0, 9502.0, 9512.0, 9513.0, 9516.0, 9518.0, 9518.0, 9511.0, 9514.0, 9480.0, 9486.0, 9477.0, 9467.0, 9466.0, 9460.0, 9458.0, 9443.0, 9450.0, 9456.0, 9465.0, 9474.0, 9479.0, 9501.0, 9525.0, 9527.0, 9519.0, 9510.0, 9519.0, 9516.0, 9480.0, 9478.0, 9457.0, 9447.0, 9445.0, 9429.0, 9425.0, 9400.0, 9370.0, 9367.0, 9351.0, 9345.0, 9336.0, 9338.0, 9347.0, 9348.0, 9359.0, 9380.0, 9386.0, 9403.0, 9418.0, 9408.0, 9415.0, 9415.0, 9423.0, 9420.0, 9407.0, 9413.0, 9439.0, 9438.0, 9453.0, 9440.0, 9422.0, 9413.0, 9439.0, 9446.0, 9440.0, 9419.0],
      "WindowWidth": [20112.0, 20008.0, 20014.0, 19981.0, 19992.0, 20028.0, 20066.0, 20060.0, 20029.0, 19993.0, 19974.0, 19939.0, 19886.0, 19878.0, 19877.0, 19880.0, 19874.0, 19882.0, 19873.0, 19867.0, 19879.0, 19923.0, 19934.0, 19953.0, 19980.0, 20017.0, 20042.0, 20039.0, 20026.0, 20016.0, 20013.0, 19985.0, 19962.0, 19938.0, 19909.0, 19951.0, 19979.0, 19939.0, 19974.0, 20030.0, 20052.0, 20000.0, 19954.0, 19916.0, 19911.0, 19894.0, 19891.0, 19895.0, 19922.0, 19943.0, 19962.0, 19958.0, 19951.0, 19952.0, 19973.0, 19990.0, 20003.0, 20043.0, 20037.0, 20016.0, 20019.0, 20022.0, 19994.0, 19976.0, 19950.0, 19950.0, 19934.0, 19945.0, 19924.0, 19907.0, 19933.0, 19962.0, 19964.0, 19957.0, 19967.0, 19949.0, 19949.0, 19921.0, 19922.0, 19915.0, 19894.0, 19903.0, 19895.0, 19908.0, 19909.0, 19928.0, 19974.0, 19989.0, 19986.0, 20031.0, 20042.0, 20005.0, 19994.0, 19997.0, 19985.0, 20004.0, 19975.0, 19961.0, 19951.0, 19944.0, 19916.0, 19882.0, 19881.0, 19875.0, 19880.0, 19887.0, 19908.0, 19898.0, 19921.0, 19928.0, 19923.0, 19938.0, 19952.0, 19974.0, 19971.0, 19972.0, 20020.0, 20076.0, 20072.0, 20082.0, 20073.0, 20091.0, 20072.0, 20047.0, 20023.0, 20003.0, 20015.0, 20034.0, 20035.0, 20038.0, 20045.0, 20047.0, 20032.0, 20031.0, 19973.0, 19983.0, 19965.0, 19942.0, 19941.0, 19928.0, 19921.0, 19894.0, 19905.0, 19915.0, 19937.0, 19953.0, 19969.0, 20012.0, 20059.0, 20063.0, 20045.0, 20031.0, 20050.0, 20040.0, 19961.0, 19946.0, 19911.0, 19892.0, 19884.0, 19856.0, 19840.0, 19791.0, 19736.0, 19726.0, 19695.0, 19678.0, 19660.0, 19669.0, 19687.0, 19693.0, 19714.0, 19751.0, 19771.0, 19804.0, 19829.0, 19814.0, 19825.0, 19829.0, 19842.0, 19833.0, 19811.0, 19819.0, 19875.0, 19876.0, 19902.0, 19876.0, 19839.0, 19819.0, 19884.0, 19885.0, 19879.0, 19837.0]
    },
    "slices": {}
  },
  "NumberOfVolumes": 192
}