{
  "aor": 0.0004765625,
  "aqi": 0.005831855260416667,
  "bids_meta": {
    "AcquisitionMatrixPE": 104,
    "AcquisitionNumber": 1,
    "AcquisitionTime": "13:15:26.697500",
    "BandwidthPerPixelPhaseEncode": 16.578,
    "BaseResolution": 104,
    "BodyPartExamined": "BRAIN",
    "CogAtlasID": "TODO",
    "ConsistencyInfo": "N4_VE11C_LATEST_20160120",
    "ConversionSoftware": "dcm2niix",
    "ConversionSoftwareVersion": "v1.0.20190902",
    "DerivedVendorReportedEchoSpacing": 0.000580009,
    "DeviceSerialNumber": "166018",
    "DwellTime": 2.1e-06,
    "EchoTime": 0.037,
    "EchoTrainLength": 104,
    "EffectiveEchoSpacing": 0.000580009,
    "FlipAngle": 68,
    "ImageComments": "Unaliased_MB6_PE3_LB",
    "ImageOrientationPatientDICOM": [
      0.999487,
      0.0261597,
      -0.018501,
      -0.0287911,
      0.986645,
      -0.160318
    ],
    "ImageType": [
      "ORIGINAL",
      "PRIMARY",
      "M",
      "MB",
      "ND",
      "MOSAIC"
    ],
    "ImagingFrequency": 123.191,
    "InPlanePhaseEncodingDirectionDICOM": "COL",
    "InstitutionAddress": "Washington_Place_6_NYC_NYC_US_10003",
    "InstitutionName": "NYU_Center_for_Brain_Imaging",
    "InstitutionalDepartmentName": "Department",
    "MRAcquisitionType": "2D",
    "MagneticFieldStrength": 3,
    "Manufacturer": "Siemens",
    "ManufacturersModelName": "Prisma",
    "Modality": "MR",
    "MultibandAccelerationFactor": 6,
    "NumberOfVolumes": 192,
    "PartialFourier": 1,
    "PatientPosition": "HFS",
    "PercentPhaseFOV": 100,
    "PhaseEncodingDirection": "j",
    "PhaseEncodingSteps": 104,
    "PhaseResolution": 1,
    "PixelBandwidth": 2290,
    "ProcedureStepDescription": "Investigators_Winawer",
    "ProtocolName": "cmrr_mbepi_s6_2mm_66sl_PA_TR1.0",
    "PulseSequenceDetails": "%CustomerSeq%_cmrr_mbep2d_bold",
    "ReceiveCoilActiveElements": "HC1-7",
    "ReceiveCoilName": "HeadNeck_64",
    "ReconMatrixPE": 104,
    "RepetitionTime": 1,
    "SAR": 0.0625584,
    "ScanOptions": "FS",
    "ScanningSequence": "EP",
    "SequenceName": "epfid2d1_104",
    "SequenceVariant": "SK_SS",
    "SeriesDescription": "cmrr_mbepi_s6_2mm_66sl_PA_TR1.0",
    "SeriesNumber": 16,
    "ShimSetting": [
      257,
      -12631,
      -8447,
      449,
      1,
      -16,
      86,
      38
    ],
    "SliceThickness": 2,
    "SliceTiming": [
      0,
      0.5325,
      0.0875,
      0.6225,
      0.1775,
      0.7125,
      0.2675,
      0.8,
      0.355,
      0.89,
      0.445,
      0,
      0.5325,
      0.0875,
      0.6225,
      0.1775,
      0.7125,
      0.2675,
      0.8,
      0.355,
      0.89,
      0.445,
      0,
      0.5325,
      0.0875,
      0.6225,
      0.1775,
      0.7125,
      0.2675,
      0.8,
      0.355,
      0.89,
      0.445,
      0,
      0.5325,
      0.0875,
      0.6225,
      0.1775,
      0.7125,
      0.2675,
      0.8,
      0.355,
      0.89,
      0.445,
      0,
      0.5325,
      0.0875,
      0.6225,
      0.1775,
      0.7125,
      0.2675,
      0.8,
      0.355,
      0.89,
      0.445,
      0,
      0.5325,
      0.0875,
      0.6225,
      0.1775,
      0.7125,
      0.2675,
      0.8,
      0.355,
      0.89,
      0.445
    ],
    "SoftwareVersions": "syngo_MR_E11",
    "SpacingBetweenSlices": 2,
    "StationName": "AWP166018",
    "TaskName": "prf",
    "TotalReadoutTime": 0.0597409,
    "TxRefAmp": 214.37,
    "WipMemBlock": "8737a8b0-6464-4e11-b2c4-0ae3077a1f12||Sequence: ve11c/master r/ab69a6c; Apr 19 2017 09:47:47 by eja",
    "acq_id": "PA",
    "dataset": "unknown",
    "dcmmeta_affine": [
      [
        -1.9989731311798096,
        -0.05758224427700043,
        -0.02812008000910282,
        113.10984802246094
      ],
      [
        -0.05231931060552597,
        1.9732909202575684,
        -0.32153627276420593,
        -77.13788604736328
      ],
      [
        -0.03700193762779236,
        0.320635586977005,
        1.97378408908844,
        -64.35639953613281
      ],
      [
        0.0,
        0.0,
        0.0,
        1.0
      ]
    ],
    "dcmmeta_reorient_transform": [
      [
        0.0,
        -1.0,
        0.0,
        103.0
      ],
      [
        1.0,
        0.0,
        0.0,
        0.0
      ],
      [
        0.0,
        0.0,
        1.0,
        0.0
      ],
      [
        0.0,
        0.0,
        0.0,
        1.0
      ]
    ],
    "dcmmeta_shape": [
      104,
      104,
      66,
      192
    ],
    "dcmmeta_slice_dim": 2,
    "dcmmeta_version": 0.6,
    "global": {
      "const": {
        "AccessionNumber": "j94gwt7u",
        "AcquisitionMatrix": [
          104,
          0,
          0,
          104
        ],
        "AngioFlag": "N",
        "BitsAllocated": 16,
        "BitsStored": 16,
        "BodyPartExamined": "BRAIN",
        "Columns": 936,
        "EchoNumbers": 1,
        "EchoTime": 37.0,
        "EchoTrainLength": 104,
        "FlipAngle": 68.0,
        "HighBit": 15,
        "ImageOrientationPatient": [
          0.99948656147083,
          0.02615965539129,
          -0.0185009694077,
          -0.0287911223546,
          0.98664546758569,
          -0.1603177861816
        ],
        "ImagePositionPatient": [
          -914.79748492973,
          -968.76494538722,
          117.44626990449
        ],
        "ImageType": [
          "ORIGINAL",
          "PRIMARY",
          "M",
          "MB",
          "ND",
          "MOSAIC"
        ],
        "ImagedNucleus": "1H",
        "ImagingFrequency": 123.19122,
        "InPlanePhaseEncodingDirection": "COL",
        "MRAcquisitionType": "2D",
        "MagneticFieldStrength": 3.0,
        "Manufacturer": "SIEMENS",
        "ManufacturerModelName": "Prisma",
        "Modality": "MR",
        "NumberOfAverages": 1.0,
        "NumberOfPhaseEncodingSteps": 104,
        "PercentPhaseFieldOfView": 100.0,
        "PercentSampling": 100.0,
        "PerformedProcedureStepStartTime": "124416.153000",
        "PhotometricInterpretation": "MONOCHROME2",
        "PixelBandwidth": 2290.0,
        "PixelRepresentation": 0,
        "PixelSpacing": [
          2.0,
          2.0
        ],
        "ProtocolName": "cmrr_mbepi_s6_2mm_66sl_PA_TR1.0",
        "RepetitionTime": 1000.0,
        "Rows": 936,
        "SAR": 0.0625584192918,
        "SamplesPerPixel": 1,
        "ScanOptions": "FS",
        "ScanningSequence": "EP",
        "SequenceName": "epfid2d1_104",
        "SequenceVariant": [
          "SK",
          "SS"
        ],
        "SeriesDescription": "cmrr_mbepi_s6_2mm_66sl_PA_TR1.0",
        "SeriesNumber": 16,
        "SeriesTime": "131620.012000",
        "SliceLocation": -52.70183357968,
        "SliceThickness": 2.0,
        "SmallestImagePixelValue": 0,
        "SoftwareVersions": "syngo MR E11",
        "SpacingBetweenSlices": 2.0000000044048,
        "SpecificCharacterSet": "ISO_IR 100",
        "StudyID": "2",
        "StudyTime": "124416.101000",
        "TransmitCoilName": "Body",
        "VariableFlipAngleFlag": "N",
        "WindowCenterWidthExplanation": "Algo1",
        "dBdt": 0.0
      },
      "slices": {}
    },
    "modality": "bold",
    "run_id": 5,
    "session_id": "nyu3t01",
    "subject_id": "wlsubj001",
    "task_id": "prf",
    "time": {
      "samples": {
        "AcquisitionNumber": [
          1,
          2,
          3,
          4,
          5,
          6,
          7,
          8,
          9,
          10,
          11,
          12,
          13,
          14,
          15,
          16,
          17,
          18,
          19,
          20,
          21,
          22,
          23,
          24,
          25,
          26,
          27,
          28,
          29,
          30,
          31,
          32,
          33,
          34,
          35,
          36,
          37,
          38,
          39,
          40,
          41,
          42,
          43,
          44,
          45,
          46,
          47,
          48,
          49,
          50,
          51,
          52,
          53,
          54,
          55,
          56,
          57,
          58,
          59,
          60,
          61,
          62,
          63,
          64,
          65,
          66,
          67,
          68,
          69,
          70,
          71,
          72,
          73,
          74,
          75,
          76,
          77,
          78,
          79,
          80,
          81,
          82,
          83,
          84,
          85,
          86,
          87,
          88,
          89,
          90,
          91,
          92,
          93,
          94,
          95,
          96,
          97,
          98,
          99,
          100,
          101,
          102,
          103,
          104,
          105,
          106,
          107,
          108,
          109,
          110,
          111,
          112,
          113,
          114,
          115,
          116,
          117,
          118,
          119,
          120,
          121,
          122,
          123,
          124,
          125,
          126,
          127,
          128,
          129,
          130,
          131,
          132,
          133,
          134,
          135,
          136,
          137,
          138,
          139,
          140,
          141,
          142,
          143,
          144,
          145,
          146,
          147,
          148,
          149,
          150,
          151,
          152,
          153,
          154,
          155,
          156,
          157,
          158,
          159,
          160,
          161,
          162,
          163,
          164,
          165,
          166,
          167,
          168,
          169,
          170,
          171,
          172,
          173,
          174,
          175,
          176,
          177,
          178,
          179,
          180,
          181,
          182,
          183,
          184,
          185,
          186,
          187,
          188,
          189,
          190,
          191,
          192
        ],
        "AcquisitionTime": [
          "131526.697500",
          "131527.697500",
          "131528.697500",
          "131529.697500",
          "131530.697500",
          "131531.697500",
          "131532.697500",
          "131533.697500",
          "131534.697500",
          "131535.697500",
          "131536.697500",
          "131537.697500",
          "131538.697500",
          "131539.697500",
          "131540.697500",
          "131541.697500",
          "131542.697500",
          "131543.697500",
          "131544.697500",
          "131545.697500",
          "131546.697500",
          "131547.697500",
          "131548.697500",
          "131549.697500",
          "131550.697500",
          "131551.697500",
          "131552.697500",
          "131553.697500",
          "131554.697500",
          "131555.697500",
          "131556.697500",
          "131557.697500",
          "131558.697500",
          "131559.697500",
          "131600.697500",
          "131601.697500",
          "131602.697500",
          "131603.697500",
          "131604.697500",
          "131605.697500",
          "131606.697500",
          "131607.697500",
          "131608.697500",
          "131609.697500",
          "131610.697500",
          "131611.697500",
          "131612.697500",
          "131613.697500",
          "131614.697500",
          "131615.697500",
          "131616.697500",
          "131617.697500",
          "131618.697500",
          "131619.697500",
          "131620.697500",
          "131621.697500",
          "131622.697500",
          "131623.697500",
          "131624.697500",
          "131625.697500",
          "131626.697500",
          "131627.697500",
          "131628.697500",
          "131629.697500",
          "131630.697500",
          "131631.697500",
          "131632.697500",
          "131633.697500",
          "131634.697500",
          "131635.697500",
          "131636.697500",
          "131637.697500",
          "131638.697500",
          "131639.697500",
          "131640.697500",
          "131641.697500",
          "131642.697500",
          "131643.697500",
          "131644.697500",
          "131645.697500",
          "131646.697500",
          "131647.697500",
          "131648.697500",
          "131649.697500",
          "131650.697500",
          "131651.697500",
          "131652.697500",
          "131653.697500",
          "131654.697500",
          "131655.697500",
          "131656.697500",
          "131657.697500",
          "131658.697500",
          "131659.697500",
          "131700.697500",
          "131701.697500",
          "131702.697500",
          "131703.697500",
          "131704.697500",
          "131705.697500",
          "131706.697500",
          "131707.697500",
          "131708.697500",
          "131709.697500",
          "131710.697500",
          "131711.697500",
          "131712.697500",
          "131713.697500",
          "131714.697500",
          "131715.697500",
          "131716.697500",
          "131717.697500",
          "131718.697500",
          "131719.697500",
          "131720.697500",
          "131721.697500",
          "131722.697500",
          "131723.697500",
          "131724.697500",
          "131725.697500",
          "131726.697500",
          "131727.697500",
          "131728.697500",
          "131729.697500",
          "131730.697500",
          "131731.697500",
          "131732.697500",
          "131733.697500",
          "131734.697500",
          "131735.697500",
          "131736.697500",
          "131737.697500",
          "131738.697500",
          "131739.697500",
          "131740.697500",
          "131741.697500",
          "131742.697500",
          "131743.697500",
          "131744.697500",
          "131745.697500",
          "131746.697500",
          "131747.697500",
          "131748.697500",
          "131749.697500",
          "131750.697500",
          "131751.697500",
          "131752.697500",
          "131753.697500",
          "131754.697500",
          "131755.697500",
          "131756.697500",
          "131757.697500",
          "131758.697500",
          "131759.697500",
          "131800.697500",
          "131801.697500",
          "131802.697500",
          "131803.697500",
          "131804.697500",
          "131805.697500",
          "131806.697500",
          "131807.697500",
          "131808.697500",
          "131809.697500",
          "131810.697500",
          "131811.697500",
          "131812.697500",
          "131813.697500",
          "131814.697500",
          "131815.697500",
          "131816.697500",
          "131817.697500",
          "131818.697500",
          "131819.697500",
          "131820.697500",
          "131821.697500",
          "131822.697500",
          "131823.697500",
          "131824.697500",
          "131825.697500",
          "131826.697500",
          "131827.697500",
          "131828.697500",
          "131829.697500",
          "131830.697500",
          "131831.697500",
          "131832.697500",
          "131833.697500",
          "131834.697500",
          "131835.697500",
          "131836.697500",
          "131837.697500"
        ],
        "ContentTime": [
          "131620.015000",
          "131620.024000",
          "131620.028000",
          "131620.031000",
          "131639.979000",
          "131639.982000",
          "131639.985000",
          "131639.988000",
          "131639.991000",
          "131639.994000",
          "131639.997000",
          "131640.001000",
          "131640.009000",
          "131640.012000",
          "131640.015000",
          "131640.018000",
          "131640.021000",
          "131640.024000",
          "131640.027000",
          "131640.030000",
          "131640.033000",
          "131640.036000",
          "131640.039000",
          "131640.042000",
          "131640.045000",
          "131640.048000",
          "131640.051000",
          "131640.054000",
          "131640.057000",
          "131640.060000",
          "131640.063000",
          "131640.066000",
          "131640.069000",
          "131659.978000",
          "131659.981000",
          "131659.984000",
          "131659.987000",
          "131659.990000",
          "131659.993000",
          "131659.996000",
          "131700.000000",
          "131700.003000",
          "131700.006000",
          "131700.009000",
          "131700.012000",
          "131700.015000",
          "131700.018000",
          "131700.035000",
          "131700.038000",
          "131700.041000",
          "131700.044000",
          "131700.047000",
          "131700.050000",
          "131700.053000",
          "131700.063000",
          "131700.066000",
          "131700.069000",
          "131700.072000",
          "131700.075000",
          "131700.080000",
          "131700.083000",
          "131719.979000",
          "131719.982000",
          "131719.985000",
          "131719.988000",
          "131719.991000",
          "131719.994000",
          "131719.997000",
          "131720.001000",
          "131720.004000",
          "131720.007000",
          "131720.010000",
          "131720.013000",
          "131720.016000",
          "131720.019000",
          "131720.022000",
          "131720.025000",
          "131720.028000",
          "131720.031000",
          "131720.034000",
          "131720.037000",
          "131720.040000",
          "131720.043000",
          "131720.046000",
          "131720.049000",
          "131720.052000",
          "131720.063000",
          "131720.065000",
          "131720.068000",
          "131739.979000",
          "131739.989000",
          "131739.992000",
          "131739.995000",
          "131739.998000",
          "131740.002000",
          "131740.005000",
          "131740.008000",
          "131740.011000",
          "131740.014000",
          "131740.017000",
          "131740.020000",
          "131740.023000",
          "131740.026000",
          "131740.029000",
          "131740.032000",
          "131740.035000",
          "131740.037000",
          "131740.040000",
          "131740.043000",
          "131740.047000",
          "131740.049000",
          "131740.052000",
          "131740.055000",
          "131740.058000",
          "131740.061000",
          "131740.064000",
          "131740.067000",
          "131759.979000",
          "131759.982000",
          "131759.985000",
          "131759.988000",
          "131759.991000",
          "131759.994000",
          "131759.997000",
          "131800.001000",
          "131800.004000",
          "131800.007000",
          "131800.010000",
          "131800.013000",
          "131800.016000",
          "131800.019000",
          "131800.022000",
          "131800.025000",
          "131800.028000",
          "131800.031000",
          "131800.034000",
          "131800.037000",
          "131800.040000",
          "131800.043000",
          "131800.046000",
          "131800.049000",
          "131800.052000",
          "131800.055000",
          "131800.058000",
          "131800.061000",
          "131800.064000",
          "131819.979000",
          "131819.982000",
          "131819.985000",
          "131819.988000",
          "131819.991000",
          "131819.994000",
          "131819.997000",
          "131820.001000",
          "131820.004000",
          "131820.007000",
          "131820.010000",
          "131820.013000",
          "131820.016000",
          "131820.019000",
          "131820.022000",
          "131820.025000",
          "131820.028000",
          "131820.031000",
          "131820.034000",
          "131820.037000",
          "131820.040000",
          "131820.043000",
          "131820.046000",
          "131820.052000",
          "131820.055000",
          "131820.058000",
          "131839.747000",
          "131839.750000",
          "131839.753000",
          "131839.756000",
          "131839.759000",
          "131839.762000",
          "131839.765000",
          "131839.768000",
          "131839.771000",
          "131839.774000",
          "131839.777000",
          "131839.780000",
          "131839.783000",
          "131839.786000",
          "131839.789000",
          "131839.792000",
          "131839.795000",
          "131839.800000",
          "131839.802000",
          "131839.806000"
        ],
        "InstanceCreationTime": [
          "131620.015000",
          "131620.024000",
          "131620.028000",
          "131620.031000",
          "131639.979000",
          "131639.982000",
          "131639.985000",
          "131639.988000",
          "131639.991000",
          "131639.994000",
          "131639.997000",
          "131640.001000",
          "131640.009000",
          "131640.012000",
          "131640.015000",
          "131640.018000",
          "131640.021000",
          "131640.024000",
          "131640.027000",
          "131640.030000",
          "131640.033000",
          "131640.036000",
          "131640.039000",
          "131640.042000",
          "131640.045000",
          "131640.048000",
          "131640.051000",
          "131640.054000",
          "131640.057000",
          "131640.060000",
          "131640.063000",
          "131640.066000",
          "131640.069000",
          "131659.978000",
          "131659.981000",
          "131659.984000",
          "131659.987000",
          "131659.990000",
          "131659.993000",
          "131659.996000",
          "131700.000000",
          "131700.003000",
          "131700.006000",
          "131700.009000",
          "131700.012000",
          "131700.015000",
          "131700.018000",
          "131700.035000",
          "131700.038000",
          "131700.041000",
          "131700.044000",
          "131700.047000",
          "131700.050000",
          "131700.053000",
          "131700.063000",
          "131700.066000",
          "131700.069000",
          "131700.072000",
          "131700.075000",
          "131700.080000",
          "131700.083000",
          "131719.979000",
          "131719.982000",
          "131719.985000",
          "131719.988000",
          "131719.991000",
          "131719.994000",
          "131719.997000",
          "131720.001000",
          "131720.004000",
          "131720.007000",
          "131720.010000",
          "131720.013000",
          "131720.016000",
          "131720.019000",
          "131720.022000",
          "131720.025000",
          "131720.028000",
          "131720.031000",
          "131720.034000",
          "131720.037000",
          "131720.040000",
          "131720.043000",
          "131720.046000",
          "131720.049000",
          "131720.052000",
          "131720.063000",
          "131720.065000",
          "131720.068000",
          "131739.979000",
          "131739.989000",
          "131739.992000",
          "131739.995000",
          "131739.998000",
          "131740.002000",
          "131740.005000",
          "131740.008000",
          "131740.011000",
          "131740.014000",
          "131740.017000",
          "131740.020000",
          "131740.023000",
          "131740.026000",
          "131740.029000",
          "131740.032000",
          "131740.035000",
          "131740.037000",
          "131740.040000",
          "131740.043000",
          "131740.047000",
          "131740.049000",
          "131740.052000",
          "131740.055000",
          "131740.058000",
          "131740.061000",
          "131740.064000",
          "131740.067000",
          "131759.979000",
          "131759.982000",
          "131759.985000",
          "131759.988000",
          "131759.991000",
          "131759.994000",
          "131759.997000",
          "131800.001000",
          "131800.004000",
          "131800.007000",
          "131800.010000",
          "131800.013000",
          "131800.016000",
          "131800.019000",
          "131800.022000",
          "131800.025000",
          "131800.028000",
          "131800.031000",
          "131800.034000",
          "131800.037000",
          "131800.040000",
          "131800.043000",
          "131800.046000",
          "131800.049000",
          "131800.052000",
          "131800.055000",
          "131800.058000",
          "131800.061000",
          "131800.064000",
          "131819.979000",
          "131819.982000",
          "131819.985000",
          "131819.988000",
          "131819.991000",
          "131819.994000",
          "131819.997000",
          "131820.001000",
          "131820.004000",
          "131820.007000",
          "131820.010000",
          "131820.013000",
          "131820.016000",
          "131820.019000",
          "131820.022000",
          "131820.025000",
          "131820.028000",
          "131820.031000",
          "131820.034000",
          "131820.037000",
          "131820.040000",
          "131820.043000",
          "131820.046000",
          "131820.052000",
          "131820.055000",
          "131820.058000",
          "131839.747000",
          "131839.750000",
          "131839.753000",
          "131839.756000",
          "131839.759000",
          "131839.762000",
          "131839.765000",
          "131839.768000",
          "131839.771000",
          "131839.774000",
          "131839.777000",
          "131839.780000",
          "131839.783000",
          "131839.786000",
          "131839.789000",
          "131839.792000",
          "131839.795000",
          "131839.800000",
          "131839.802000",
          "131839.806000"
        ],
        "InstanceNumber": [
          1,
          2,
          3,
          4,
          5,
          6,
          7,
          8,
          9,
          10,
          11,
          12,
          13,
          14,
          15,
          16,
          17,
          18,
          19,
          20,
          21,
          22,
          23,
          24,
          25,
          26,
          27,
          28,
          29,
          30,
          31,
          32,
          33,
          34,
          35,
          36,
          37,
          38,
          39,
          40,
          41,
          42,
          43,
          44,
          45,
          46,
          47,
          48,
          49,
          50,
          51,
          52,
          53,
          54,
          55,
          56,
          57,
          58,
          59,
          60,
          61,
          62,
          63,
          64,
          65,
          66,
          67,
          68,
          69,
          70,
          71,
          72,
          73,
          74,
          75,
          76,
          77,
          78,
          79,
          80,
          81,
          82,
          83,
          84,
          85,
          86,
          87,
          88,
          89,
          90,
          91,
          92,
          93,
          94,
          95,
          96,
          97,
          98,
          99,
          100,
          101,
          102,
          103,
          104,
          105,
          106,
          107,
          108,
          109,
          110,
          111,
          112,
          113,
          114,
          115,
          116,
          117,
          118,
          119,
          120,
          121,
          122,
          123,
          124,
          125,
          126,
          127,
          128,
          129,
          130,
          131,
          132,
          133,
          134,
          135,
          136,
          137,
          138,
          139,
          140,
          141,
          142,
          143,
          144,
          145,
          146,
          147,
          148,
          149,
          150,
          151,
          152,
          153,
          154,
          155,
          156,
          157,
          158,
          159,
          160,
          161,
          162,
          163,
          164,
          165,
          166,
          167,
          168,
          169,
          170,
          171,
          172,
          173,
          174,
          175,
          176,
          177,
          178,
          179,
          180,
          181,
          182,
          183,
          184,
          185,
          186,
          187,
          188,
          189,
          190,
          191,
          192
        ],
        "LargestImagePixelValue": [
          35052,
          33935,
          34240,
          33932,
          33428,
          33629,
          33141,
          33175,
          33077,
          33234,
          33723,
          33276,
          33160,
          33581,
          34167,
          33662,
          34213,
          34332,
          33766,
          34291,
          34164,
          34061,
          34315,
          34492,
          33760,
          33490,
          33436,
          33225,
          33474,
          33214,
          33587,
          34140,
          33881,
          33734,
          34060,
          33554,
          33646,
          34269,
          33723,
          33893,
          34376,
          34362,
          34639,
          34033,
          34414,
          33921,
          33674,
          33450,
          32978,
          33658,
          34101,
          33479,
          33710,
          34275,
          33823,
          33936,
          34315,
          33702,
          33923,
          34329,
          33261,
          33941,
          33785,
          33529,
          33883,
          34420,
          34430,
          34703,
          34863,
          34062,
          34541,
          34042,
          33930,
          34222,
          33921,
          33522,
          33923,
          33284,
          33402,
          33855,
          34099,
          33971,
          34080,
          34621,
