{
  "AcquisitionMatrixPE": 104,
  "AcquisitionNumber": 1,
  "AcquisitionTime": "10:19:7.717500",
  "BandwidthPerPixelPhaseEncode": 16.578,
  "BaseResolution": 104,
  "BodyPartExamined": "BRAIN",
  "ConsistencyInfo": "N4_VE11C_LATEST_20160120",
  "ConversionSoftware": "dcm2niix",
  "ConversionSoftwareVersion": "v1.0.20190902",
  "DerivedVendorReportedEchoSpacing": 0.000580009,
  "DeviceSerialNumber": "166018",
  "DwellTime": 2.1e-06,
  "EchoTime": 0.037,
  "EchoTrainLength": 104,
  "EffectiveEchoSpacing": 0.000580009,
  "FlipAngle": 68,
  "ImageComments": "Unaliased_MB6_PE3_LB",
  "ImageOrientationPatientDICOM": [0.999273, -0.0141729, -0.0353937, 0.00837168, 0.987248, -0.15897],
  "ImageType": [
    "ORIGINAL",
    "PRIMARY",
    "M",
    "MB",
    "ND",
    "MOSAIC"
],
  "ImagingFrequency": 123.187,
  "InPlanePhaseEncodingDirectionDICOM": "COL",
  "InstitutionAddress": "Washington_Place_6_NYC_NYC_US_10003",
  "InstitutionName": "NYU_Center_for_Brain_Imaging",
  "InstitutionalDepartmentName": "Department",
  "MRAcquisitionType": "2D",
  "MagneticFieldStrength": 3,
  "Manufacturer": "Siemens",
  "ManufacturersModelName": "Prisma",
  "Modality": "MR",
  "MultibandAccelerationFactor": 6,
  "PartialFourier": 1,
  "PatientPosition": "HFS",
  "PercentPhaseFOV": 100,
  "PhaseEncodingDirection": "j",
  "PhaseEncodingSteps": 104,
  "PhaseResolution": 1,
  "PixelBandwidth": 2290,
  "ProcedureStepDescription": "Investigators_Winawer",
  "ProtocolName": "cmrr_mbepi_s6_2mm_66sl_PA_TR1.0",
  "PulseSequenceDetails": "%CustomerSeq%_cmrr_mbep2d_bold",
  "ReceiveCoilActiveElements": "HC1-7",
  "ReceiveCoilName": "HeadNeck_64",
  "ReconMatrixPE": 104,
  "RepetitionTime": 1,
  "SAR": 0.0793403,
  "ScanOptions": "FS",
  "ScanningSequence": "EP",
  "SequenceName": "epfid2d1_104",
  "SequenceVariant": "SK_SS",
  "SeriesDescription": "cmrr_mbepi_s6_2mm_66sl_PA_TR1.0",
  "SeriesNumber": 8,
  "ShimSetting": [248, -12565, -8487, 527, -1, -151, 8, 39],
  "SliceThickness": 2,
  "SliceTiming": [0, 0.535, 0.0875, 0.6225, 0.1775, 0.7125, 0.2675, 0.8, 0.355, 0.89, 0.445, 0, 0.535, 0.0875, 0.6225, 0.1775, 0.7125, 0.2675, 0.8, 0.355, 0.89, 0.445, 0, 0.535, 0.0875, 0.6225, 0.1775, 0.7125, 0.2675, 0.8, 0.355, 0.89, 0.445, 0, 0.535, 0.0875, 0.6225, 0.1775, 0.7125, 0.2675, 0.8, 0.355, 0.89, 0.445, 0, 0.535, 0.0875, 0.6225, 0.1775, 0.7125, 0.2675, 0.8, 0.355, 0.89, 0.445, 0, 0.535, 0.0875, 0.6225, 0.1775, 0.7125, 0.2675, 0.8, 0.355, 0.89, 0.445],
  "SoftwareVersions": "syngo_MR_E11",
  "SpacingBetweenSlices": 2,
  "StationName": "AWP166018",
  "TaskName": "prf",
  "TotalReadoutTime": 0.0597409,
  "TxRefAmp": 250.183,
  "WipMemBlock": "d17a22c6-2ab1-401a-b683-2fb290c6f01b||Sequence: ve11c/master r/ab69a6c; Apr 19 2017 09:47:47 by eja",
  "dcmmeta_affine": [
    [-1.9985458850860596, 0.01674336940050125, -0.07439078390598297, 109.00907897949219],
    [0.02834574691951275, 1.974495768547058, -0.31711673736572266, -70.20941925048828],
    [-0.07078734040260315, 0.31794050335884094, 1.973297357559204, -66.471923828125],
    [0.0, 0.0, 0.0, 1.0]
],
  "dcmmeta_reorient_transform": [
    [0.0, -1.0, 0.0, 103.0],
    [1.0, 0.0, 0.0, 0.0],
    [0.0, 0.0, 1.0, 0.0],
    [0.0, 0.0, 0.0, 1.0]
],
  "dcmmeta_shape": [104, 104, 66, 192],
  "dcmmeta_slice_dim": 2,
  "dcmmeta_version": 0.6,
  "global": {
    "const": {
      "AccessionNumber": "j65cqsnu",
      "AcquisitionMatrix": [104, 0, 0, 104],
      "AngioFlag": "N",
      "BitsAllocated": 16,
      "BitsStored": 16,
      "BodyPartExamined": "BRAIN",
      "Columns": 936,
      "EchoNumbers": 1,
      "EchoTime": 37.0,
      "EchoTrainLength": 104,
      "FlipAngle": 68.0,
      "HighBit": 15,
      "ImageOrientationPatient": [0.99927294453127, -0.0141728730628, -0.0353936717078, 0.00837168446251, 0.98724787790732, -0.1589702565474],
      "ImagePositionPatient": [-949.09398090774, -942.76204692646, 127.98673630363],
      "ImageType": [
        "ORIGINAL",
        "PRIMARY",
        "M",
        "MB",
        "ND",
        "MOSAIC"
],
      "ImagedNucleus": "1H",
      "ImagingFrequency": 123.187232,
      "InPlanePhaseEncodingDirection": "COL",
      "MRAcquisitionType": "2D",
      "MagneticFieldStrength": 3.0,
      "Manufacturer": "SIEMENS",
      "ManufacturerModelName": "Prisma",
      "Modality": "MR",
      "NumberOfAverages": 1.0,
      "NumberOfPhaseEncodingSteps": 104,
      "PercentPhaseFieldOfView": 100.0,
      "PercentSampling": 100.0,
      "PerformedProcedureStepStartTime": "100842.703000",
      "PhotometricInterpretation": "MONOCHROME2",
      "PixelBandwidth": 2290.0,
      "PixelRepresentation": 0,
      "PixelSpacing": [2.0, 2.0],
      "ProtocolName": "cmrr_mbepi_s6_2mm_66sl_PA_TR1.0",
      "RepetitionTime": 1000.0,
      "Rows": 936,
      "SAR": 0.07934028726642,
      "SamplesPerPixel": 1,
      "ScanOptions": "FS",
      "ScanningSequence": "EP",
      "SequenceName": "epfid2d1_104",
      "SequenceVariant": [
        "SK",
        "SS"
],
      "SeriesDescription": "cmrr_mbepi_s6_2mm_66sl_PA_TR1.0",
      "SeriesNumber": 8,
      "SeriesTime": "102032.106000",
      "SliceLocation": -58.506785531017,
      "SliceThickness": 2.0,
      "SmallestImagePixelValue": 0,
      "SoftwareVersions": "syngo MR E11",
      "SpacingBetweenSlices": 1.9999999258799,
      "SpecificCharacterSet": "ISO_IR 100",
      "StudyID": "3",
      "StudyTime": "100842.649000",
      "TransmitCoilName": "Body",
      "VariableFlipAngleFlag": "N",
      "WindowCenterWidthExplanation": "Algo1",
      "dBdt": 0.0},
    "slices": {}
  },
  "time": {
    "samples": {
      "AcquisitionNumber": [1, 2, 3, 4, 5, 6, 7, 8, 9, 10, 11, 12, 13, 14, 15, 16, 17, 18, 19, 20, 21, 22, 23, 24, 25, 26, 27, 28, 29, 30, 31, 32, 33, 34, 35, 36, 37, 38, 39, 40, 41, 42, 43, 44, 45, 46, 47, 48, 49, 50, 51, 52, 53, 54, 55, 56, 57, 58, 59, 60, 61, 62, 63, 64, 65, 66, 67, 68, 69, 70, 71, 72, 73, 74, 75, 76, 77, 78, 79, 80, 81, 82, 83, 84, 85, 86, 87, 88, 89, 90, 91, 92, 93, 94, 95, 96, 97, 98, 99, 100, 101, 102, 103, 104, 105, 106, 107, 108, 109, 110, 111, 112, 113, 114, 115, 116, 117, 118, 119, 120, 121, 122, 123, 124, 125, 126, 127, 128, 129, 130, 131, 132, 133, 134, 135, 136, 137, 138, 139, 140, 141, 142, 143, 144, 145, 146, 147, 148, 149, 150, 151, 152, 153, 154, 155, 156, 157, 158, 159, 160, 161, 162, 163, 164, 165, 166, 167, 168, 169, 170, 171, 172, 173, 174, 175, 176, 177, 178, 179, 180, 181, 182, 183, 184, 185, 186, 187, 188, 189, 190, 191, 192],
      "AcquisitionTime": ["101907.717500", "101908.717500", "101909.717500", "101910.717500", "101911.717500", "101912.717500", "101913.717500", "101914.717500", "101915.717500", "101916.717500", "101917.717500", "101918.717500", "101919.717500", "101920.717500", "101921.717500", "101922.717500", "101923.717500", "101924.717500", "101925.717500", "101926.717500", "101927.717500", "101928.717500", "101929.717500", "101930.717500", "101931.717500", "101932.717500", "101933.717500", "101934.717500", "101935.717500", "101936.717500", "101937.717500", "101938.717500", "101939.717500", "101940.717500", "101941.717500", "101942.717500", "101943.717500", "101944.717500", "101945.717500", "101946.717500", "101947.717500", "101948.717500", "101949.717500", "101950.717500", "101951.717500", "101952.717500", "101953.717500", "101954.717500", "101955.717500", "101956.717500", "101957.717500", "101958.717500", "101959.717500", "102000.717500", "102001.717500", "102002.717500", "102003.717500", "102004.717500", "102005.717500", "102006.717500", "102007.717500", "102008.717500", "102009.717500", "102010.717500", "102011.717500", "102012.717500", "102013.717500", "102014.717500", "102015.717500", "102016.717500", "102017.717500", "102018.717500", "102019.717500", "102020.717500", "102021.717500", "102022.717500", "102023.717500", "102024.717500", "102025.717500", "102026.717500", "102027.717500", "102028.717500", "102029.717500", "102030.717500", "102031.717500", "102032.717500", "102033.717500", "102034.717500", "102035.717500", "102036.717500", "102037.717500", "102038.717500", "102039.717500", "102040.717500", "102041.717500", "102042.717500", "102043.717500", "102044.717500", "102045.717500", "102046.717500", "102047.717500", "102048.717500", "102049.717500", "102050.717500", "102051.717500", "102052.717500", "102053.717500", "102054.717500", "102055.717500", "102056.717500", "102057.717500", "102058.717500", "102059.717500", "102100.717500", "102101.717500", "102102.717500", "102103.717500", "102104.717500", "102105.717500", "102106.717500", "102107.717500", "102108.717500", "102109.717500", "102110.717500", "102111.717500", "102112.717500", "102113.717500", "102114.717500", "102115.717500", "102116.717500", "102117.717500", "102118.717500", "102119.717500", "102120.717500", "102121.717500", "102122.717500", "102123.717500", "102124.717500", "102125.717500", "102126.717500", "102127.717500", "102128.717500", "102129.717500", "102130.717500", "102131.717500", "102132.717500", "102133.717500", "102134.717500", "102135.717500", "102136.717500", "102137.717500", "102138.717500", "102139.717500", "102140.717500", "102141.717500", "102142.717500", "102143.717500", "102144.717500", "102145.717500", "102146.717500", "102147.717500", "102148.717500", "102149.717500", "102150.717500", "102151.717500", "102152.717500", "102153.717500", "102154.717500", "102155.717500", "102156.717500", "102157.717500", "102158.717500", "102159.717500", "102200.717500", "102201.717500", "102202.717500", "102203.717500", "102204.717500", "102205.717500", "102206.717500", "102207.717500", "102208.717500", "102209.717500", "102210.717500", "102211.717500", "102212.717500", "102213.717500", "102214.717500", "102215.717500", "102216.717500", "102217.717500", "102218.717500"],
      "ContentTime": ["102032.109000", "102032.113000", "102032.116000", "102032.119000", "102032.126000", "102032.129000", "102032.133000", "102032.135000", "102032.143000", "102032.146000", "102032.149000", "102032.152000", "102032.155000", "102032.158000", "102032.186000", "102032.189000", "102032.192000", "102032.200000", "102032.203000", "102032.206000", "102032.209000", "102032.212000", "102032.215000", "102032.218000", "102032.221000", "102032.225000", "102032.227000", "102032.231000", "102032.234000", "102032.237000", "102032.240000", "102032.243000", "102032.246000", "102032.249000", "102032.252000", "102032.255000", "102032.258000", "102032.261000", "102032.264000", "102032.267000", "102032.270000", "102032.273000", "102032.276000", "102032.279000", "102052.078000", "102052.081000", "102052.084000", "102052.087000", "102052.091000", "102052.094000", "102052.097000", "102052.100000", "102052.103000", "102052.106000", "102052.109000", "102052.112000", "102052.115000", "102052.118000", "102052.121000", "102052.124000", "102052.128000", "102052.131000", "102052.134000", "102052.137000", "102052.140000", "102052.143000", "102052.146000", "102052.149000", "102052.152000", "102052.155000", "102052.159000", "102052.162000", "102112.078000", "102112.093000", "102112.096000", "102112.099000", "102112.102000", "102112.105000", "102112.108000", "102112.111000", "102112.114000", "102112.117000", "102112.120000", "102112.123000", "102112.128000", "102112.132000", "102112.135000", "102112.138000", "102112.141000", "102112.144000", "102112.147000", "102112.150000", "102112.153000", "102112.156000", "102112.159000", "102112.162000", "102112.165000", "102112.168000", "102112.171000", "102112.174000", "102112.177000", "102132.078000", "102132.081000", "102132.084000", "102132.087000", "102132.090000", "102132.093000", "102132.096000", "102132.099000", "102132.103000", "102132.106000", "102132.109000", "102132.112000", "102132.115000", "102132.118000", "102132.121000", "102132.125000", "102132.129000", "102132.132000", "102132.135000", "102132.138000", "102132.141000", "102132.144000", "102132.147000", "102132.150000", "102132.154000", "102132.157000", "102132.160000", "102132.163000", "102152.078000", "102152.081000", "102152.084000", "102152.087000", "102152.090000", "102152.093000", "102152.096000", "102152.099000", "102152.103000", "102152.106000", "102152.109000", "102152.112000", "102152.115000", "102152.118000", "102152.121000", "102152.125000", "102152.129000", "102152.132000", "102152.135000", "102152.138000", "102152.141000", "102152.144000", "102152.147000", "102152.150000", "102152.153000", "102152.156000", "102152.159000", "102152.162000", "102212.078000", "102212.081000", "102212.084000", "102212.087000", "102212.090000", "102212.093000", "102212.096000", "102212.099000", "102212.103000", "102212.106000", "102212.109000", "102212.112000", "102212.115000", "102212.118000", "102212.121000", "102212.125000", "102212.128000", "102212.131000", "102212.134000", "102212.137000", "102212.141000", "102212.144000", "102212.147000", "102212.150000", "102212.153000", "102212.156000", "102220.330000", "102220.333000", "102220.336000", "102220.339000", "102220.342000", "102220.345000", "102220.348000", "102220.351000", "102220.354000"],
      "InstanceCreationTime": ["102032.109000", "102032.113000", "102032.116000", "102032.119000", "102032.126000", "102032.129000", "102032.133000", "102032.135000", "102032.143000", "102032.146000", "102032.149000", "102032.152000", "102032.155000", "102032.158000", "102032.186000", "102032.189000", "102032.192000", "102032.200000", "102032.203000", "102032.206000", "102032.209000", "102032.212000", "102032.215000", "102032.218000", "102032.221000", "102032.225000", "102032.227000", "102032.231000", "102032.234000", "102032.237000", "102032.240000", "102032.243000", "102032.246000", "102032.249000", "102032.252000", "102032.255000", "102032.258000", "102032.261000", "102032.264000", "102032.267000", "102032.270000", "102032.273000", "102032.276000", "102032.279000", "102052.078000", "102052.081000", "102052.084000", "102052.087000", "102052.091000", "102052.094000", "102052.097000", "102052.100000", "102052.103000", "102052.106000", "102052.109000", "102052.112000", "102052.115000", "102052.118000", "102052.121000", "102052.124000", "102052.128000", "102052.131000", "102052.134000", "102052.137000", "102052.140000", "102052.143000", "102052.146000", "102052.149000", "102052.152000", "102052.155000", "102052.159000", "102052.162000", "102112.078000", "102112.093000", "102112.096000", "102112.099000", "102112.102000", "102112.105000", "102112.108000", "102112.111000", "102112.114000", "102112.117000", "102112.120000", "102112.123000", "102112.128000", "102112.132000", "102112.135000", "102112.138000", "102112.141000", "102112.144000", "102112.147000", "102112.150000", "102112.153000", "102112.156000", "102112.159000", "102112.162000", "102112.165000", "102112.168000", "102112.171000", "102112.174000", "102112.177000", "102132.078000", "102132.081000", "102132.084000", "102132.087000", "102132.090000", "102132.093000", "102132.096000", "102132.099000", "102132.103000", "102132.106000", "102132.109000", "102132.112000", "102132.115000", "102132.118000", "102132.121000", "102132.125000", "102132.129000", "102132.132000", "102132.135000", "102132.138000", "102132.141000", "102132.144000", "102132.147000", "102132.150000", "102132.154000", "102132.157000", "102132.160000", "102132.163000", "102152.078000", "102152.081000", "102152.084000", "102152.087000", "102152.090000", "102152.093000", "102152.096000", "102152.099000", "102152.103000", "102152.106000", "102152.109000", "102152.112000", "102152.115000", "102152.118000", "102152.121000", "102152.125000", "102152.129000", "102152.132000", "102152.135000", "102152.138000", "102152.141000", "102152.144000", "102152.147000", "102152.150000", "102152.153000", "102152.156000", "102152.159000", "102152.162000", "102212.078000", "102212.081000", "102212.084000", "102212.087000", "102212.090000", "102212.093000", "102212.096000", "102212.099000", "102212.103000", "102212.106000", "102212.109000", "102212.112000", "102212.115000", "102212.118000", "102212.121000", "102212.125000", "102212.128000", "102212.131000", "102212.134000", "102212.137000", "102212.141000", "102212.144000", "102212.147000", "102212.150000", "102212.153000", "102212.156000", "102220.330000", "102220.333000", "102220.336000", "102220.339000", "102220.342000", "102220.345000", "102220.348000", "102220.351000", "102220.354000"],
      "InstanceNumber": [1, 2, 3, 4, 5, 6, 7, 8, 9, 10, 11, 12, 13, 14, 15, 16, 17, 18, 19, 20, 21, 22, 23, 24, 25, 26, 27, 28, 29, 30, 31, 32, 33, 34, 35, 36, 37, 38, 39, 40, 41, 42, 43, 44, 45, 46, 47, 48, 49, 50, 51, 52, 53, 54, 55, 56, 57, 58, 59, 60, 61, 62, 63, 64, 65, 66, 67, 68, 69, 70, 71, 72, 73, 74, 75, 76, 77, 78, 79, 80, 81, 82, 83, 84, 85, 86, 87, 88, 89, 90, 91, 92, 93, 94, 95, 96, 97, 98, 99, 100, 101, 102, 103, 104, 105, 106, 107, 108, 109, 110, 111, 112, 113, 114, 115, 116, 117, 118, 119, 120, 121, 122, 123, 124, 125, 126, 127, 128, 129, 130, 131, 132, 133, 134, 135, 136, 137, 138, 139, 140, 141, 142, 143, 144, 145, 146, 147, 148, 149, 150, 151, 152, 153, 154, 155, 156, 157, 158, 159, 160, 161, 162, 163, 164, 165, 166, 167, 168, 169, 170, 171, 172, 173, 174, 175, 176, 177, 178, 179, 180, 181, 182, 183, 184, 185, 186, 187, 188, 189, 190, 191, 192],
      "LargestImagePixelValue": [33523, 32390, 31055, 31479, 31185, 31213, 31338, 31258, 30895, 31090, 31356, 31466, 31200, 30815, 31159, 31239, 31625, 31041, 31028, 31254, 31215, 30946, 31413, 31468, 31314, 31365, 31429, 31177, 31136, 31145, 31103, 31141, 31042, 31280, 31196, 31076, 31522, 31377, 30818, 31313, 31349, 31338, 31363, 31193, 31618, 31236, 31006, 31329, 31194, 31071, 31674, 31693, 31235, 31854, 31538, 32118, 31706, 31717, 31671, 31396, 31097, 32042, 31530, 31382, 31888, 31761, 31455, 31317, 31530, 31864, 31706, 31783, 31216, 31376, 31331, 31605, 31612, 32053, 31493, 31537, 31681, 31445, 31718, 31569, 31406, 31610, 31399, 31799, 31905, 31562, 31167, 31673, 32163, 31692, 31066, 31434, 31650, 31104, 31113, 31762, 31459, 31590, 31450, 31476, 31705, 31607, 31061, 31719, 31611, 30852, 31249, 31199, 31665, 31442, 31649, 30927, 31303, 31149, 31166, 31562, 31450, 31371, 31565, 31499, 31165, 31724, 31369, 30844, 31780, 30966, 31531, 31718, 31168, 30935, 31706, 30738, 30858, 31471, 31673, 30698, 31626, 31890, 30723, 30874, 31284, 30573, 30865, 30980, 30468, 31166, 31040, 30927, 31339, 31128, 30742, 31242, 31414, 30719, 31354, 30583, 30716, 31466, 31141, 30691, 31659, 30236, 31519, 31224, 31016, 31253, 31848, 30769, 31353, 30812, 31085, 30883, 30621, 30595, 31165, 30856, 30746, 30855, 30755, 30873, 31247, 30745, 30870, 30669, 30481, 30711, 31042, 30350],
      "WindowCenter": [9218.0, 9191.0, 9184.0, 9183.0, 9173.0, 9162.0, 9153.0, 9151.0, 9155.0, 9162.0, 9163.0, 9161.0, 9153.0, 9145.0, 9142.0, 9140.0, 9146.0, 9133.0, 9141.0, 9141.0, 9141.0, 9144.0, 9152.0, 9151.0, 9149.0, 9141.0, 9139.0, 9133.0, 9134.0, 9142.0, 9143.0, 9152.0, 9152.0, 9167.0, 9161.0, 9161.0, 9159.0, 9153.0, 9146.0, 9150.0, 9141.0, 9139.0, 9137.0, 9133.0, 9164.0, 9167.0, 9161.0, 9160.0, 9143.0, 9133.0, 9138.0, 9136.0, 9138.0, 9156.0, 9167.0, 9186.0, 9183.0, 9179.0, 9151.0, 9141.0, 9132.0, 9147.0, 9156.0, 9151.0, 9158.0, 9150.0, 9140.0, 9124.0, 9131.0, 9139.0, 9149.0, 9148.0, 9134.0, 9132.0, 9131.0, 9131.0, 9130.0, 9130.0, 9121.0, 9119.0, 9122.0, 9129.0, 9131.0, 9141.0, 9150.0, 9150.0, 9144.0, 9151.0, 9158.0, 9152.0, 9138.0, 9152.0, 9167.0, 9160.0, 9154.0, 9155.0, 9162.0, 9167.0, 9168.0, 9191.0, 9188.0, 9185.0, 9176.0, 9174.0, 9172.0, 9167.0, 9167.0, 9172.0, 9162.0, 9141.0, 9145.0, 9141.0, 9153.0, 9157.0, 9165.0, 9158.0, 9155.0, 9147.0, 9138.0, 9143.0, 9136.0, 9145.0, 9154.0, 9167.0, 9169.0, 9167.0, 9166.0, 9158.0, 9164.0, 9158.0, 9157.0, 9164.0, 9157.0, 9154.0, 9164.0, 9170.0, 9170.0, 9177.0, 9176.0, 9153.0, 9156.0, 9148.0, 9142.0, 9142.0, 9148.0, 9140.0, 9132.0, 9137.0, 9124.0, 9131.0, 9133.0, 9151.0, 9151.0, 9143.0, 9142.0, 9134.0, 9139.0, 9136.0, 9150.0, 9146.0, 9145.0, 9149.0, 9142.0, 9135.0, 9139.0, 9125.0, 9129.0, 9128.0, 9122.0, 9119.0, 9127.0, 9120.0, 9111.0, 9103.0, 9101.0, 9093.0, 9102.0, 9104.0, 9110.0, 9103.0, 9104.0, 9103.0, 9113.0, 9122.0, 9126.0, 9105.0, 9092.0, 9082.0, 9084.0, 9100.0, 9110.0, 9103.0],
      "WindowWidth": [19470.0, 19406.0, 19388.0, 19381.0, 19359.0, 19329.0, 19314.0, 19308.0, 19319.0, 19334.0, 19336.0, 19330.0, 19313.0, 19298.0, 19291.0, 19284.0, 19294.0, 19274.0, 19288.0, 19289.0, 19290.0, 19297.0, 19312.0, 19310.0, 19301.0, 19288.0, 19283.0, 19273.0, 19277.0, 19292.0, 19296.0, 19312.0, 19310.0, 19340.0, 19331.0, 19329.0, 19324.0, 19314.0, 19302.0, 19306.0, 19287.0, 19281.0, 19274.0, 19274.0, 19330.0, 19340.0, 19329.0, 19324.0, 19292.0, 19270.0, 19275.0, 19272.0, 19279.0, 19315.0, 19341.0, 19379.0, 19376.0, 19365.0, 19306.0, 19282.0, 19266.0, 19294.0, 19315.0, 19311.0, 19321.0, 19306.0, 19283.0, 19254.0, 19263.0, 19280.0, 19302.0, 19299.0, 19275.0, 19268.0, 19263.0, 19262.0, 19261.0, 19259.0, 19241.0, 19235.0, 19243.0, 19258.0, 19266.0, 19286.0, 19305.0, 19304.0, 19294.0, 19305.0, 19320.0, 19309.0, 19288.0, 19310.0, 19335.0, 19326.0, 19317.0, 19320.0, 19330.0, 19345.0, 19351.0, 19392.0, 19390.0, 19382.0, 19362.0, 19355.0, 19347.0, 19340.0, 19342.0, 19350.0, 19326.0, 19291.0, 19293.0, 19290.0, 19311.0, 19322.0, 19337.0, 19327.0, 19316.0, 19298.0, 19281.0, 19287.0, 19275.0, 19295.0, 19313.0, 19342.0, 19349.0, 19342.0, 19337.0, 19324.0, 19332.0, 19319.0, 19318.0, 19330.0, 19319.0, 19312.0, 19330.0, 19348.0, 19352.0, 19361.0, 19354.0, 19315.0, 19317.0, 19298.0, 19290.0, 19294.0, 19299.0, 19286.0, 19271.0, 19278.0, 19256.0, 19268.0, 19274.0, 19308.0, 19310.0, 19292.0, 19290.0, 19274.0, 19282.0, 19280.0, 19304.0, 19300.0, 19299.0, 19300.0, 19287.0, 19276.0, 19278.0, 19254.0, 19258.0, 19253.0, 19243.0, 19234.0, 19248.0, 19238.0, 19219.0, 19202.0, 19199.0, 19186.0, 19203.0, 19212.0, 19219.0, 19208.0, 19211.0, 19209.0, 19227.0, 19247.0, 19251.0, 19210.0, 19182.0, 19161.0, 19166.0, 19199.0, 19219.0, 19208.0]
    },
    "slices": {}
  },
  "NumberOfVolumes": 192
}