{
  "AcquisitionMatrixPE": 104,
  "AcquisitionNumber": 1,
  "AcquisitionTime": "10:39:20.475000",
  "BandwidthPerPixelPhaseEncode": 16.578,
  "BaseResolution": 104,
  "BodyPartExamined": "BRAIN",
  "ConsistencyInfo": "N4_VE11C_LATEST_20160120",
  "ConversionSoftware": "dcm2niix",
  "ConversionSoftwareVersion": "v1.0.20190902",
  "DerivedVendorReportedEchoSpacing": 0.000580009,
  "DeviceSerialNumber": "166018",
  "DwellTime": 2.1e-06,
  "EchoTime": 0.037,
  "EchoTrainLength": 104,
  "EffectiveEchoSpacing": 0.000580009,
  "FlipAngle": 68,
  "ImageComments": "Unaliased_MB6_PE3_LB",
  "ImageOrientationPatientDICOM": [0.999273, -0.0141729, -0.0353937, 0.00837168, 0.987248, -0.15897],
  "ImageType": [
    "ORIGINAL",
    "PRIMARY",
    "M",
    "MB",
    "ND",
    "MOSAIC"
],
  "ImagingFrequency": 123.187,
  "InPlanePhaseEncodingDirectionDICOM": "COL",
  "InstitutionAddress": "Washington_Place_6_NYC_NYC_US_10003",
  "InstitutionName": "NYU_Center_for_Brain_Imaging",
  "InstitutionalDepartmentName": "Department",
  "MRAcquisitionType": "2D",
  "MagneticFieldStrength": 3,
  "Manufacturer": "Siemens",
  "ManufacturersModelName": "Prisma",
  "Modality": "MR",
  "MultibandAccelerationFactor": 6,
  "PartialFourier": 1,
  "PatientPosition": "HFS",
  "PercentPhaseFOV": 100,
  "PhaseEncodingDirection": "j",
  "PhaseEncodingSteps": 104,
  "PhaseResolution": 1,
  "PixelBandwidth": 2290,
  "ProcedureStepDescription": "Investigators_Winawer",
  "ProtocolName": "cmrr_mbepi_s6_2mm_66sl_PA_TR1.0",
  "PulseSequenceDetails": "%CustomerSeq%_cmrr_mbep2d_bold",
  "ReceiveCoilActiveElements": "HC1-7",
  "ReceiveCoilName": "HeadNeck_64",
  "ReconMatrixPE": 104,
  "RepetitionTime": 1,
  "SAR": 0.0793403,
  "ScanOptions": "FS",
  "ScanningSequence": "EP",
  "SequenceName": "epfid2d1_104",
  "SequenceVariant": "SK_SS",
  "SeriesDescription": "cmrr_mbepi_s6_2mm_66sl_PA_TR1.0",
  "SeriesNumber": 18,
  "ShimSetting": [248, -12565, -8487, 527, -1, -151, 8, 39],
  "SliceThickness": 2,
  "SliceTiming": [0, 0.5325, 0.0875, 0.6225, 0.1775, 0.7125, 0.2675, 0.8, 0.355, 0.89, 0.445, 0, 0.5325, 0.0875, 0.6225, 0.1775, 0.7125, 0.2675, 0.8, 0.355, 0.89, 0.445, 0, 0.5325, 0.0875, 0.6225, 0.1775, 0.7125, 0.2675, 0.8, 0.355, 0.89, 0.445, 0, 0.5325, 0.0875, 0.6225, 0.1775, 0.7125, 0.2675, 0.8, 0.355, 0.89, 0.445, 0, 0.5325, 0.0875, 0.6225, 0.1775, 0.7125, 0.2675, 0.8, 0.355, 0.89, 0.445, 0, 0.5325, 0.0875, 0.6225, 0.1775, 0.7125, 0.2675, 0.8, 0.355, 0.89, 0.445],
  "SoftwareVersions": "syngo_MR_E11",
  "SpacingBetweenSlices": 2,
  "StationName": "AWP166018",
  "TaskName": "prf",
  "TotalReadoutTime": 0.0597409,
  "TxRefAmp": 250.183,
  "WipMemBlock": "39dfe9a8-fef6-4618-90cc-a33a990a3be9||Sequence: ve11c/master r/ab69a6c; Apr 19 2017 09:47:47 by eja",
  "dcmmeta_affine": [
    [-1.9985458850860596, 0.01674336940050125, -0.07439078390598297, 109.00907897949219],
    [0.02834574691951275, 1.974495768547058, -0.31711673736572266, -70.20941925048828],
    [-0.07078734040260315, 0.31794050335884094, 1.973297357559204, -66.471923828125],
    [0.0, 0.0, 0.0, 1.0]
],
  "dcmmeta_reorient_transform": [
    [0.0, -1.0, 0.0, 103.0],
    [1.0, 0.0, 0.0, 0.0],
    [0.0, 0.0, 1.0, 0.0],
    [0.0, 0.0, 0.0, 1.0]
],
  "dcmmeta_shape": [104, 104, 66, 192],
  "dcmmeta_slice_dim": 2,
  "dcmmeta_version": 0.6,
  "global": {
    "const": {
      "AccessionNumber": "j65cqsnu",
      "AcquisitionMatrix": [104, 0, 0, 104],
      "AngioFlag": "N",
      "BitsAllocated": 16,
      "BitsStored": 16,
      "BodyPartExamined": "BRAIN",
      "Columns": 936,
      "EchoNumbers": 1,
      "EchoTime": 37.0,
      "EchoTrainLength": 104,
      "FlipAngle": 68.0,
      "HighBit": 15,
      "ImageOrientationPatient": [0.99927294453127, -0.0141728730628, -0.0353936717078, 0.00837168446251, 0.98724787790732, -0.1589702565474],
      "ImagePositionPatient": [-949.09398090774, -942.76204692646, 127.98673630363],
      "ImageType": [
        "ORIGINAL",
        "PRIMARY",
        "M",
        "MB",
        "ND",
        "MOSAIC"
],
      "ImagedNucleus": "1H",
      "ImagingFrequency": 123.187236,
      "InPlanePhaseEncodingDirection": "COL",
      "MRAcquisitionType": "2D",
      "MagneticFieldStrength": 3.0,
      "Manufacturer": "SIEMENS",
      "ManufacturerModelName": "Prisma",
      "Modality": "MR",
      "NumberOfAverages": 1.0,
      "NumberOfPhaseEncodingSteps": 104,
      "PercentPhaseFieldOfView": 100.0,
      "PercentSampling": 100.0,
      "PerformedProcedureStepStartTime": "100842.703000",
      "PhotometricInterpretation": "MONOCHROME2",
      "PixelBandwidth": 2290.0,
      "PixelRepresentation": 0,
      "PixelSpacing": [2.0, 2.0],
      "ProtocolName": "cmrr_mbepi_s6_2mm_66sl_PA_TR1.0",
      "RepetitionTime": 1000.0,
      "Rows": 936,
      "SAR": 0.07934028726642,
      "SamplesPerPixel": 1,
      "ScanOptions": "FS",
      "ScanningSequence": "EP",
      "SequenceName": "epfid2d1_104",
      "SequenceVariant": [
        "SK",
        "SS"
],
      "SeriesDescription": "cmrr_mbepi_s6_2mm_66sl_PA_TR1.0",
      "SeriesNumber": 18,
      "SeriesTime": "104049.060000",
      "SliceLocation": -58.506785531017,
      "SliceThickness": 2.0,
      "SmallestImagePixelValue": 0,
      "SoftwareVersions": "syngo MR E11",
      "SpacingBetweenSlices": 1.9999999258799,
      "SpecificCharacterSet": "ISO_IR 100",
      "StudyID": "3",
      "StudyTime": "100842.649000",
      "TransmitCoilName": "Body",
      "VariableFlipAngleFlag": "N",
      "WindowCenterWidthExplanation": "Algo1",
      "dBdt": 0.0},
    "slices": {}
  },
  "time": {
    "samples": {
      "AcquisitionNumber": [1, 2, 3, 4, 5, 6, 7, 8, 9, 10, 11, 12, 13, 14, 15, 16, 17, 18, 19, 20, 21, 22, 23, 24, 25, 26, 27, 28, 29, 30, 31, 32, 33, 34, 35, 36, 37, 38, 39, 40, 41, 42, 43, 44, 45, 46, 47, 48, 49, 50, 51, 52, 53, 54, 55, 56, 57, 58, 59, 60, 61, 62, 63, 64, 65, 66, 67, 68, 69, 70, 71, 72, 73, 74, 75, 76, 77, 78, 79, 80, 81, 82, 83, 84, 85, 86, 87, 88, 89, 90, 91, 92, 93, 94, 95, 96, 97, 98, 99, 100, 101, 102, 103, 104, 105, 106, 107, 108, 109, 110, 111, 112, 113, 114, 115, 116, 117, 118, 119, 120, 121, 122, 123, 124, 125, 126, 127, 128, 129, 130, 131, 132, 133, 134, 135, 136, 137, 138, 139, 140, 141, 142, 143, 144, 145, 146, 147, 148, 149, 150, 151, 152, 153, 154, 155, 156, 157, 158, 159, 160, 161, 162, 163, 164, 165, 166, 167, 168, 169, 170, 171, 172, 173, 174, 175, 176, 177, 178, 179, 180, 181, 182, 183, 184, 185, 186, 187, 188, 189, 190, 191, 192],
      "AcquisitionTime": ["103920.475000", "103921.475000", "103922.475000", "103923.475000", "103924.475000", "103925.475000", "103926.475000", "103927.475000", "103928.475000", "103929.475000", "103930.475000", "103931.475000", "103932.475000", "103933.475000", "103934.475000", "103935.475000", "103936.475000", "103937.475000", "103938.475000", "103939.475000", "103940.475000", "103941.475000", "103942.475000", "103943.475000", "103944.475000", "103945.475000", "103946.475000", "103947.475000", "103948.475000", "103949.475000", "103950.475000", "103951.475000", "103952.475000", "103953.475000", "103954.475000", "103955.475000", "103956.475000", "103957.475000", "103958.475000", "103959.475000", "104000.475000", "104001.475000", "104002.475000", "104003.475000", "104004.475000", "104005.475000", "104006.475000", "104007.475000", "104008.475000", "104009.475000", "104010.475000", "104011.475000", "104012.475000", "104013.475000", "104014.475000", "104015.475000", "104016.475000", "104017.475000", "104018.475000", "104019.475000", "104020.475000", "104021.475000", "104022.475000", "104023.475000", "104024.475000", "104025.475000", "104026.475000", "104027.475000", "104028.475000", "104029.475000", "104030.475000", "104031.475000", "104032.475000", "104033.475000", "104034.475000", "104035.475000", "104036.475000", "104037.475000", "104038.475000", "104039.475000", "104040.475000", "104041.475000", "104042.475000", "104043.475000", "104044.475000", "104045.475000", "104046.475000", "104047.475000", "104048.475000", "104049.475000", "104050.475000", "104051.475000", "104052.475000", "104053.475000", "104054.475000", "104055.475000", "104056.475000", "104057.475000", "104058.475000", "104059.475000", "104100.475000", "104101.475000", "104102.475000", "104103.475000", "104104.475000", "104105.475000", "104106.475000", "104107.475000", "104108.475000", "104109.475000", "104110.475000", "104111.475000", "104112.475000", "104113.475000", "104114.475000", "104115.475000", "104116.475000", "104117.475000", "104118.475000", "104119.475000", "104120.475000", "104121.475000", "104122.475000", "104123.475000", "104124.475000", "104125.475000", "104126.475000", "104127.475000", "104128.475000", "104129.475000", "104130.475000", "104131.475000", "104132.475000", "104133.475000", "104134.475000", "104135.475000", "104136.475000", "104137.475000", "104138.475000", "104139.475000", "104140.475000", "104141.475000", "104142.475000", "104143.475000", "104144.475000", "104145.475000", "104146.475000", "104147.475000", "104148.475000", "104149.475000", "104150.475000", "104151.475000", "104152.475000", "104153.475000", "104154.475000", "104155.475000", "104156.475000", "104157.475000", "104158.475000", "104159.475000", "104200.475000", "104201.475000", "104202.475000", "104203.475000", "104204.475000", "104205.475000", "104206.475000", "104207.475000", "104208.475000", "104209.475000", "104210.475000", "104211.475000", "104212.475000", "104213.475000", "104214.475000", "104215.475000", "104216.475000", "104217.475000", "104218.475000", "104219.475000", "104220.475000", "104221.475000", "104222.475000", "104223.475000", "104224.475000", "104225.475000", "104226.475000", "104227.475000", "104228.475000", "104229.475000", "104230.475000", "104231.475000"],
      "ContentTime": ["104049.063000", "104049.078000", "104049.080000", "104049.084000", "104049.087000", "104049.090000", "104049.093000", "104049.096000", "104049.099000", "104049.102000", "104049.105000", "104049.108000", "104049.111000", "104049.114000", "104049.117000", "104049.121000", "104049.124000", "104049.127000", "104049.130000", "104049.133000", "104049.136000", "104049.139000", "104049.142000", "104049.145000", "104049.148000", "104049.151000", "104049.154000", "104049.157000", "104049.161000", "104049.164000", "104049.167000", "104049.170000", "104049.173000", "104049.176000", "104049.179000", "104049.182000", "104049.185000", "104049.188000", "104049.191000", "104049.194000", "104049.197000", "104049.200000", "104049.203000", "104049.207000", "104049.210000", "104109.028000", "104109.031000", "104109.034000", "104109.037000", "104109.040000", "104109.043000", "104109.047000", "104109.050000", "104109.053000", "104109.056000", "104109.059000", "104109.062000", "104109.065000", "104109.069000", "104109.072000", "104109.075000", "104109.078000", "104109.081000", "104109.084000", "104109.087000", "104109.090000", "104109.093000", "104109.096000", "104109.099000", "104109.102000", "104109.105000", "104109.109000", "104109.112000", "104129.027000", "104129.030000", "104129.034000", "104129.037000", "104129.040000", "104129.043000", "104129.046000", "104129.049000", "104129.052000", "104129.055000", "104129.058000", "104129.061000", "104129.064000", "104129.067000", "104129.071000", "104129.074000", "104129.077000", "104129.080000", "104129.083000", "104129.086000", "104129.089000", "104129.092000", "104129.095000", "104129.098000", "104129.101000", "104129.104000", "104129.107000", "104129.110000", "104149.027000", "104149.030000", "104149.034000", "104149.037000", "104149.040000", "104149.043000", "104149.046000", "104149.049000", "104149.060000", "104149.063000", "104149.066000", "104149.069000", "104149.072000", "104149.075000", "104149.078000", "104149.081000", "104149.084000", "104149.087000", "104149.090000", "104149.093000", "104149.097000", "104149.102000", "104149.107000", "104149.110000", "104149.113000", "104149.116000", "104149.119000", "104149.122000", "104209.027000", "104209.030000", "104209.033000", "104209.036000", "104209.040000", "104209.043000", "104209.046000", "104209.049000", "104209.052000", "104209.055000", "104209.058000", "104209.061000", "104209.064000", "104209.067000", "104209.070000", "104209.073000", "104209.077000", "104209.080000", "104209.083000", "104209.086000", "104209.089000", "104209.092000", "104209.095000", "104209.098000", "104209.101000", "104209.104000", "104209.107000", "104209.110000", "104209.123000", "104229.027000", "104229.030000", "104229.033000", "104229.036000", "104229.039000", "104229.042000", "104229.045000", "104229.049000", "104229.052000", "104229.055000", "104229.058000", "104229.061000", "104229.064000", "104229.067000", "104229.070000", "104229.073000", "104229.076000", "104229.079000", "104229.082000", "104229.085000", "104229.088000", "104229.091000", "104229.095000", "104229.098000", "104229.101000", "104229.104000", "104229.107000", "104229.110000", "104232.954000", "104232.957000", "104232.960000", "104232.964000", "104232.967000", "104232.970000"],
      "InstanceCreationTime": ["104049.063000", "104049.078000", "104049.080000", "104049.084000", "104049.087000", "104049.090000", "104049.093000", "104049.096000", "104049.099000", "104049.102000", "104049.105000", "104049.108000", "104049.111000", "104049.114000", "104049.117000", "104049.121000", "104049.124000", "104049.127000", "104049.130000", "104049.133000", "104049.136000", "104049.139000", "104049.142000", "104049.145000", "104049.148000", "104049.151000", "104049.154000", "104049.157000", "104049.161000", "104049.164000", "104049.167000", "104049.170000", "104049.173000", "104049.176000", "104049.179000", "104049.182000", "104049.185000", "104049.188000", "104049.191000", "104049.194000", "104049.197000", "104049.200000", "104049.203000", "104049.207000", "104049.210000", "104109.028000", "104109.031000", "104109.034000", "104109.037000", "104109.040000", "104109.043000", "104109.047000", "104109.050000", "104109.053000", "104109.056000", "104109.059000", "104109.062000", "104109.065000", "104109.069000", "104109.072000", "104109.075000", "104109.078000", "104109.081000", "104109.084000", "104109.087000", "104109.090000", "104109.093000", "104109.096000", "104109.099000", "104109.102000", "104109.105000", "104109.109000", "104109.112000", "104129.027000", "104129.030000", "104129.034000", "104129.037000", "104129.040000", "104129.043000", "104129.046000", "104129.049000", "104129.052000", "104129.055000", "104129.058000", "104129.061000", "104129.064000", "104129.067000", "104129.071000", "104129.074000", "104129.077000", "104129.080000", "104129.083000", "104129.086000", "104129.089000", "104129.092000", "104129.095000", "104129.098000", "104129.101000", "104129.104000", "104129.107000", "104129.110000", "104149.027000", "104149.030000", "104149.034000", "104149.037000", "104149.040000", "104149.043000", "104149.046000", "104149.049000", "104149.060000", "104149.063000", "104149.066000", "104149.069000", "104149.072000", "104149.075000", "104149.078000", "104149.081000", "104149.084000", "104149.087000", "104149.090000", "104149.093000", "104149.097000", "104149.102000", "104149.107000", "104149.110000", "104149.113000", "104149.116000", "104149.119000", "104149.122000", "104209.027000", "104209.030000", "104209.033000", "104209.036000", "104209.040000", "104209.043000", "104209.046000", "104209.049000", "104209.052000", "104209.055000", "104209.058000", "104209.061000", "104209.064000", "104209.067000", "104209.070000", "104209.073000", "104209.077000", "104209.080000", "104209.083000", "104209.086000", "104209.089000", "104209.092000", "104209.095000", "104209.098000", "104209.101000", "104209.104000", "104209.107000", "104209.110000", "104209.123000", "104229.027000", "104229.030000", "104229.033000", "104229.036000", "104229.039000", "104229.042000", "104229.045000", "104229.049000", "104229.052000", "104229.055000", "104229.058000", "104229.061000", "104229.064000", "104229.067000", "104229.070000", "104229.073000", "104229.076000", "104229.079000", "104229.082000", "104229.085000", "104229.088000", "104229.091000", "104229.095000", "104229.098000", "104229.101000", "104229.104000", "104229.107000", "104229.110000", "104232.954000", "104232.957000", "104232.960000", "104232.964000", "104232.967000", "104232.970000"],
      "InstanceNumber": [1, 2, 3, 4, 5, 6, 7, 8, 9, 10, 11, 12, 13, 14, 15, 16, 17, 18, 19, 20, 21, 22, 23, 24, 25, 26, 27, 28, 29, 30, 31, 32, 33, 34, 35, 36, 37, 38, 39, 40, 41, 42, 43, 44, 45, 46, 47, 48, 49, 50, 51, 52, 53, 54, 55, 56, 57, 58, 59, 60, 61, 62, 63, 64, 65, 66, 67, 68, 69, 70, 71, 72, 73, 74, 75, 76, 77, 78, 79, 80, 81, 82, 83, 84, 85, 86, 87, 88, 89, 90, 91, 92, 93, 94, 95, 96, 97, 98, 99, 100, 101, 102, 103, 104, 105, 106, 107, 108, 109, 110, 111, 112, 113, 114, 115, 116, 117, 118, 119, 120, 121, 122, 123, 124, 125, 126, 127, 128, 129, 130, 131, 132, 133, 134, 135, 136, 137, 138, 139, 140, 141, 142, 143, 144, 145, 146, 147, 148, 149, 150, 151, 152, 153, 154, 155, 156, 157, 158, 159, 160, 161, 162, 163, 164, 165, 166, 167, 168, 169, 170, 171, 172, 173, 174, 175, 176, 177, 178, 179, 180, 181, 182, 183, 184, 185, 186, 187, 188, 189, 190, 191, 192],
      "LargestImagePixelValue": [33830, 32667, 31970, 32075, 31176, 31104, 31201, 31508, 31411, 31659, 31142, 31524, 30896, 31029, 31325, 31748, 31334, 31126, 31428, 31162, 30974, 31671, 31784, 31466, 31029, 31255, 31870, 31674, 31249, 31938, 31728, 32100, 32016, 32126, 32160, 31417, 31759, 31711, 31954, 31649, 31928, 32310, 31857, 32300, 31907, 32036, 31780, 31407, 31285, 31754, 31617, 31522, 31971, 31423, 31666, 31543, 31701, 31365, 31718, 31698, 31696, 31264, 31941, 32099, 31673, 31582, 32132, 32259, 31980, 31642, 32057, 32008, 32111, 32231, 32148, 32089, 31965, 32273, 32197, 32035, 32391, 32487, 31901, 32207, 32164, 31585, 32230, 32545, 31731, 32458, 32030, 32456, 32491, 32228, 32320, 32165, 32213, 32014, 32269, 32294, 32716, 32098, 31862, 31894, 32114, 31763, 32300, 32702, 31795, 31991, 32290, 32883, 31954, 32131, 32320, 32620, 32323, 32446, 32518, 32344, 31935, 32190, 32362, 32451, 32355, 32509, 31775, 31932, 31950, 31717, 31733, 32648, 31910, 31861, 31701, 32415, 31986, 32140, 31968, 31402, 31819, 31733, 31552, 31374, 31642, 31917, 32362, 32271, 31360, 32204, 32489, 32202, 32662, 32191, 32455, 32347, 32104, 32090, 31909, 31950, 32377, 32177, 32159, 32277, 32622, 31849, 31765, 31628, 31376, 31748, 32103, 31491, 31939, 31630, 32248, 32032, 31910, 31575, 31403, 31653, 31180, 31554, 31636, 31491, 31525, 31468, 31491, 31669, 32130, 31648, 31764, 32222],
      "WindowCenter": [9185.0, 9139.0, 9122.0, 9128.0, 9123.0, 9114.0, 9122.0, 9119.0, 9117.0, 9127.0, 9130.0, 9139.0, 9134.0, 9132.0, 9133.0, 9138.0, 9121.0, 9114.0, 9113.0, 9113.0, 9122.0, 9122.0, 9127.0, 9110.0, 9104.0, 9109.0, 9117.0, 9119.0, 9111.0, 9116.0, 9108.0, 9115.0, 9116.0, 9125.0, 9137.0, 9141.0, 9140.0, 9147.0, 9146.0, 9150.0, 9165.0, 9165.0, 9158.0, 9155.0, 9146.0, 9145.0, 9138.0, 9148.0, 9150.0, 9166.0, 9177.0, 9197.0, 9199.0, 9190.0, 9179.0, 9160.0, 9158.0, 9159.0, 9177.0, 9186.0, 9188.0, 9191.0, 9195.0, 9195.0, 9194.0, 9198.0, 9208.0, 9215.0, 9198.0, 9180.0, 9177.0, 9182.0, 9184.0, 9191.0, 9184.0, 9195.0, 9206.0, 9202.0, 9191.0, 9174.0, 9173.0, 9181.0, 9186.0, 9192.0, 9195.0, 9198.0, 9202.0, 9186.0, 9170.0, 9173.0, 9154.0, 9152.0, 9159.0, 9161.0, 9161.0, 9161.0, 9152.0, 9142.0, 9143.0, 9154.0, 9179.0, 9166.0, 9159.0, 9157.0, 9163.0, 9167.0, 9184.0, 9194.0, 9190.0, 9206.0, 9224.0, 9222.0, 9210.0, 9216.0, 9199.0, 9194.0, 9178.0, 9184.0, 9194.0, 9206.0, 9201.0, 9197.0, 9178.0, 9197.0, 9201.0, 9207.0, 9201.0, 9188.0, 9174.0, 9184.0, 9203.0, 9218.0, 9214.0, 9213.0, 9204.0, 9201.0, 9193.0, 9184.0, 9192.0, 9196.0, 9195.0, 9195.0, 9194.0, 9185.0, 9175.0, 9175.0, 9179.0, 9198.0, 9206.0, 9230.0, 9231.0, 9222.0, 9210.0, 9201.0, 9192.0, 9182.0, 9173.0, 9180.0, 9173.0, 9191.0, 9218.0, 9237.0, 9225.0, 9240.0, 9231.0, 9216.0, 9206.0, 9195.0, 9188.0, 9187.0, 9191.0, 9196.0, 9224.0, 9216.0, 9220.0, 9214.0, 9205.0, 9206.0, 9209.0, 9205.0, 9191.0, 9205.0, 9196.0, 9195.0, 9203.0, 9189.0, 9186.0, 9194.0, 9192.0, 9195.0, 9205.0, 9211.0],
      "WindowWidth": [19406.0, 19302.0, 19262.0, 19267.0, 19260.0, 19243.0, 19255.0, 19246.0, 19243.0, 19261.0, 19268.0, 19289.0, 19282.0, 19274.0, 19277.0, 19282.0, 19250.0, 19239.0, 19236.0, 19235.0, 19253.0, 19254.0, 19258.0, 19226.0, 19215.0, 19221.0, 19239.0, 19243.0, 19231.0, 19235.0, 19222.0, 19234.0, 19239.0, 19255.0, 19283.0, 19297.0, 19292.0, 19305.0, 19303.0, 19314.0, 19339.0, 19340.0, 19325.0, 19316.0, 19300.0, 19299.0, 19289.0, 19310.0, 19315.0, 19346.0, 19372.0, 19414.0, 19418.0, 19397.0, 19374.0, 19336.0, 19329.0, 19333.0, 19369.0, 19390.0, 19397.0, 19404.0, 19407.0, 19407.0, 19407.0, 19416.0, 19439.0, 19451.0, 19417.0, 19381.0, 19373.0, 19378.0, 19382.0, 19396.0, 19383.0, 19406.0, 19430.0, 19419.0, 19393.0, 19358.0, 19357.0, 19374.0, 19388.0, 19397.0, 19405.0, 19414.0, 19416.0, 19382.0, 19353.0, 19352.0, 19314.0, 19310.0, 19323.0, 19328.0, 19330.0, 19326.0, 19307.0, 19284.0, 19289.0, 19317.0, 19366.0, 19344.0, 19331.0, 19326.0, 19336.0, 19349.0, 19383.0, 19402.0, 19400.0, 19430.0, 19464.0, 19458.0, 19439.0, 19448.0, 19415.0, 19397.0, 19368.0, 19375.0, 19396.0, 19422.0, 19416.0, 19403.0, 19364.0, 19399.0, 19413.0, 19422.0, 19413.0, 19382.0, 19357.0, 19379.0, 19420.0, 19450.0, 19443.0, 19440.0, 19422.0, 19412.0, 19396.0, 19383.0, 19395.0, 19409.0, 19406.0, 19405.0, 19402.0, 19383.0, 19364.0, 19362.0, 19370.0, 19408.0, 19434.0, 19479.0, 19480.0, 19458.0, 19432.0, 19413.0, 19397.0, 19377.0, 19360.0, 19371.0, 19359.0, 19398.0, 19453.0, 19494.0, 19472.0, 19498.0, 19481.0, 19451.0, 19429.0, 19404.0, 19393.0, 19391.0, 19397.0, 19412.0, 19468.0, 19455.0, 19455.0, 19444.0, 19428.0, 19431.0, 19439.0, 19426.0, 19403.0, 19426.0, 19411.0, 19408.0, 19423.0, 19399.0, 19387.0, 19403.0, 19398.0, 19406.0, 19427.0, 19435.0]
    },
    "slices": {}
  },
  "NumberOfVolumes": 192
}