{
  "AcquisitionMatrixPE": 104,
  "AcquisitionNumber": 1,
  "AcquisitionTime": "16:59:45.482500",
  "BandwidthPerPixelPhaseEncode": 16.578,
  "BaseResolution": 104,
  "BodyPartExamined": "BRAIN",
  "ConsistencyInfo": "N4_VE11C_LATEST_20160120",
  "ConversionSoftware": "dcm2niix",
  "ConversionSoftwareVersion": "v1.0.20190902",
  "DerivedVendorReportedEchoSpacing": 0.000580009,
  "DeviceSerialNumber": "166018",
  "DwellTime": 2.1e-06,
  "EchoTime": 0.037,
  "EchoTrainLength": 104,
  "EffectiveEchoSpacing": 0.000580009,
  "FlipAngle": 68,
  "ImageComments": "Unaliased_MB6_PE3_LB",
  "ImageOrientationPatientDICOM": [0.997542, -0.0458307, 0.0529967, 0.0571685, 0.969709, -0.237478],
  "ImageType": [
    "ORIGINAL",
    "PRIMARY",
    "M",
    "MB",
    "ND",
    "MOSAIC"
],
  "ImagingFrequency": 123.191,
  "InPlanePhaseEncodingDirectionDICOM": "COL",
  "InstitutionAddress": "Washington_Place_6_NYC_NYC_US_10003",
  "InstitutionName": "NYU_-_CBI",
  "InstitutionalDepartmentName": "Department",
  "MRAcquisitionType": "2D",
  "MagneticFieldStrength": 3,
  "Manufacturer": "Siemens",
  "ManufacturersModelName": "Prisma",
  "Modality": "MR",
  "MultibandAccelerationFactor": 6,
  "PartialFourier": 1,
  "PatientPosition": "HFS",
  "PercentPhaseFOV": 100,
  "PhaseEncodingDirection": "j",
  "PhaseEncodingSteps": 104,
  "PhaseResolution": 1,
  "PixelBandwidth": 2290,
  "ProcedureStepDescription": "Investigators_Winawer",
  "ProtocolName": "cmrr_mbepi_s6_2mm_66sl_PA_TR1.0",
  "PulseSequenceDetails": "%CustomerSeq%_cmrr_mbep2d_bold",
  "ReceiveCoilActiveElements": "HC1-7",
  "ReceiveCoilName": "HeadNeck_64",
  "ReconMatrixPE": 104,
  "RepetitionTime": 1,
  "SAR": 0.0800726,
  "ScanOptions": "FS",
  "ScanningSequence": "EP",
  "SequenceName": "epfid2d1_104",
  "SequenceVariant": "SK_SS",
  "SeriesDescription": "cmrr_mbepi_s6_2mm_66sl_PA_TR1.0",
  "SeriesNumber": 16,
  "ShimSetting": [253, -12564, -8485, 467, -12, -184, -35, 8],
  "SliceThickness": 2,
  "SliceTiming": [0, 0.535, 0.09, 0.625, 0.1775, 0.7125, 0.2675, 0.8025, 0.3575, 0.89, 0.445, 0, 0.535, 0.09, 0.625, 0.1775, 0.7125, 0.2675, 0.8025, 0.3575, 0.89, 0.445, 0, 0.535, 0.09, 0.625, 0.1775, 0.7125, 0.2675, 0.8025, 0.3575, 0.89, 0.445, 0, 0.535, 0.09, 0.625, 0.1775, 0.7125, 0.2675, 0.8025, 0.3575, 0.89, 0.445, 0, 0.535, 0.09, 0.625, 0.1775, 0.7125, 0.2675, 0.8025, 0.3575, 0.89, 0.445, 0, 0.535, 0.09, 0.625, 0.1775, 0.7125, 0.2675, 0.8025, 0.3575, 0.89, 0.445],
  "SoftwareVersions": "syngo_MR_E11",
  "SpacingBetweenSlices": 2,
  "StationName": "AWP166018",
  "TaskName": "prf",
  "TotalReadoutTime": 0.0597409,
  "TxRefAmp": 250.804,
  "WipMemBlock": "ee634ab6-942a-4b10-b12b-f84276b4ac44||Sequence: ve11c/master r/ab69a6c; Apr 19 2017 09:47:47 by eja",
  "dcmmeta_affine": [
    [-1.9950848817825317, 0.1143370270729065, 0.08101527392864227, 105.4575424194336],
    [0.0916614681482315, 1.9394186735153198, -0.4798473119735718, -70.46788787841797],
    [0.10599342733621597, 0.4749550521373749, 1.9398925304412842, -82.23838806152344],
    [0.0, 0.0, 0.0, 1.0]
],
  "dcmmeta_reorient_transform": [
    [0.0, -1.0, 0.0, 103.0],
    [1.0, 0.0, 0.0, 0.0],
    [0.0, 0.0, 1.0, 0.0],
    [0.0, 0.0, 0.0, 1.0]
],
  "dcmmeta_shape": [104, 104, 66, 192],
  "dcmmeta_slice_dim": 2,
  "dcmmeta_version": 0.6,
  "global": {
    "const": {
      "AccessionNumber": "j6wfq5gm",
      "AcquisitionMatrix": [104, 0, 0, 104],
      "AngioFlag": "N",
      "BitsAllocated": 16,
      "BitsStored": 16,
      "BodyPartExamined": "BRAIN",
      "Columns": 936,
      "EchoNumbers": 1,
      "EchoTime": 37.0,
      "EchoTrainLength": 104,
      "FlipAngle": 68.0,
      "HighBit": 15,
      "ImageOrientationPatient": [0.99754242629366, -0.0458307346607, 0.05299671220584, 0.05716851489868, 0.96970933081106, -0.2374775244991],
      "ImagePositionPatient": [-994.75375629416, -897.95922448674, 120.17001961562],
      "ImageType": [
        "ORIGINAL",
        "PRIMARY",
        "M",
        "MB",
        "ND",
        "MOSAIC"
],
      "ImagedNucleus": "1H",
      "ImagingFrequency": 123.19134,
      "InPlanePhaseEncodingDirection": "COL",
      "MRAcquisitionType": "2D",
      "MagneticFieldStrength": 3.0,
      "Manufacturer": "SIEMENS",
      "ManufacturerModelName": "Prisma",
      "Modality": "MR",
      "NumberOfAverages": 1.0,
      "NumberOfPhaseEncodingSteps": 104,
      "PercentPhaseFieldOfView": 100.0,
      "PercentSampling": 100.0,
      "PerformedProcedureStepStartTime": "164024.304000",
      "PhotometricInterpretation": "MONOCHROME2",
      "PixelBandwidth": 2290.0,
      "PixelRepresentation": 0,
      "PixelSpacing": [2.0, 2.0],
      "ProtocolName": "cmrr_mbepi_s6_2mm_66sl_PA_TR1.0",
      "RepetitionTime": 1000.0,
      "Rows": 936,
      "SAR": 0.08007259547669,
      "SamplesPerPixel": 1,
      "ScanOptions": "FS",
      "ScanningSequence": "EP",
      "SequenceName": "epfid2d1_104",
      "SequenceVariant": [
        "SK",
        "SS"
],
      "SeriesDescription": "cmrr_mbepi_s6_2mm_66sl_PA_TR1.0",
      "SeriesNumber": 16,
      "SeriesTime": "170058.484000",
      "SliceLocation": -58.588067354977,
      "SliceThickness": 2.0,
      "SmallestImagePixelValue": 0,
      "SoftwareVersions": "syngo MR E11",
      "SpacingBetweenSlices": 2.0000000254267,
      "SpecificCharacterSet": "ISO_IR 100",
      "StudyID": "1",
      "StudyTime": "164024.247000",
      "TransmitCoilName": "Body",
      "VariableFlipAngleFlag": "N",
      "WindowCenterWidthExplanation": "Algo1",
      "dBdt": 0.0},
    "slices": {}
  },
  "time": {
    "samples": {
      "AcquisitionNumber": [1, 2, 3, 4, 5, 6, 7, 8, 9, 10, 11, 12, 13, 14, 15, 16, 17, 18, 19, 20, 21, 22, 23, 24, 25, 26, 27, 28, 29, 30, 31, 32, 33, 34, 35, 36, 37, 38, 39, 40, 41, 42, 43, 44, 45, 46, 47, 48, 49, 50, 51, 52, 53, 54, 55, 56, 57, 58, 59, 60, 61, 62, 63, 64, 65, 66, 67, 68, 69, 70, 71, 72, 73, 74, 75, 76, 77, 78, 79, 80, 81, 82, 83, 84, 85, 86, 87, 88, 89, 90, 91, 92, 93, 94, 95, 96, 97, 98, 99, 100, 101, 102, 103, 104, 105, 106, 107, 108, 109, 110, 111, 112, 113, 114, 115, 116, 117, 118, 119, 120, 121, 122, 123, 124, 125, 126, 127, 128, 129, 130, 131, 132, 133, 134, 135, 136, 137, 138, 139, 140, 141, 142, 143, 144, 145, 146, 147, 148, 149, 150, 151, 152, 153, 154, 155, 156, 157, 158, 159, 160, 161, 162, 163, 164, 165, 166, 167, 168, 169, 170, 171, 172, 173, 174, 175, 176, 177, 178, 179, 180, 181, 182, 183, 184, 185, 186, 187, 188, 189, 190, 191, 192],
      "AcquisitionTime": ["165945.482500", "165946.482500", "165947.482500", "165948.482500", "165949.482500", "165950.482500", "165951.482500", "165952.482500", "165953.482500", "165954.482500", "165955.482500", "165956.482500", "165957.482500", "165958.482500", "165959.482500", "170000.482500", "170001.482500", "170002.482500", "170003.482500", "170004.482500", "170005.482500", "170006.482500", "170007.482500", "170008.482500", "170009.482500", "170010.482500", "170011.482500", "170012.482500", "170013.482500", "170014.482500", "170015.482500", "170016.482500", "170017.482500", "170018.482500", "170019.482500", "170020.482500", "170021.482500", "170022.482500", "170023.482500", "170024.482500", "170025.482500", "170026.482500", "170027.482500", "170028.482500", "170029.482500", "170030.482500", "170031.482500", "170032.482500", "170033.482500", "170034.482500", "170035.482500", "170036.482500", "170037.482500", "170038.482500", "170039.482500", "170040.482500", "170041.482500", "170042.482500", "170043.482500", "170044.482500", "170045.482500", "170046.482500", "170047.482500", "170048.482500", "170049.482500", "170050.482500", "170051.482500", "170052.482500", "170053.482500", "170054.482500", "170055.482500", "170056.482500", "170057.482500", "170058.482500", "170059.482500", "170100.482500", "170101.482500", "170102.482500", "170103.482500", "170104.482500", "170105.482500", "170106.482500", "170107.482500", "170108.482500", "170109.482500", "170110.482500", "170111.482500", "170112.482500", "170113.482500", "170114.482500", "170115.482500", "170116.482500", "170117.482500", "170118.482500", "170119.482500", "170120.482500", "170121.482500", "170122.482500", "170123.482500", "170124.482500", "170125.482500", "170126.482500", "170127.482500", "170128.482500", "170129.482500", "170130.482500", "170131.482500", "170132.482500", "170133.482500", "170134.482500", "170135.482500", "170136.482500", "170137.482500", "170138.482500", "170139.482500", "170140.482500", "170141.482500", "170142.482500", "170143.482500", "170144.482500", "170145.482500", "170146.482500", "170147.482500", "170148.482500", "170149.482500", "170150.482500", "170151.482500", "170152.482500", "170153.482500", "170154.482500", "170155.482500", "170156.482500", "170157.482500", "170158.482500", "170159.482500", "170200.482500", "170201.482500", "170202.482500", "170203.482500", "170204.482500", "170205.482500", "170206.482500", "170207.482500", "170208.482500", "170209.482500", "170210.482500", "170211.482500", "170212.482500", "170213.482500", "170214.482500", "170215.482500", "170216.482500", "170217.482500", "170218.482500", "170219.482500", "170220.482500", "170221.482500", "170222.482500", "170223.482500", "170224.482500", "170225.482500", "170226.482500", "170227.482500", "170228.482500", "170229.482500", "170230.482500", "170231.482500", "170232.482500", "170233.482500", "170234.482500", "170235.482500", "170236.482500", "170237.482500", "170238.482500", "170239.482500", "170240.482500", "170241.482500", "170242.482500", "170243.482500", "170244.482500", "170245.482500", "170246.482500", "170247.482500", "170248.482500", "170249.482500", "170250.482500", "170251.482500", "170252.482500", "170253.482500", "170254.482500", "170255.482500", "170256.482500"],
      "ContentTime": ["170058.487000", "170058.491000", "170058.494000", "170058.497000", "170058.500000", "170058.503000", "170058.506000", "170058.509000", "170058.512000", "170058.515000", "170058.518000", "170058.527000", "170058.530000", "170058.533000", "170058.536000", "170058.539000", "170058.541000", "170058.544000", "170058.547000", "170058.550000", "170058.553000", "170058.556000", "170058.559000", "170058.562000", "170058.565000", "170058.568000", "170058.571000", "170058.574000", "170058.577000", "170058.580000", "170058.583000", "170058.586000", "170118.450000", "170118.453000", "170118.456000", "170118.459000", "170118.462000", "170118.465000", "170118.468000", "170118.471000", "170118.474000", "170118.477000", "170118.480000", "170118.483000", "170118.486000", "170118.489000", "170118.492000", "170118.495000", "170118.498000", "170118.501000", "170118.504000", "170118.507000", "170118.510000", "170118.513000", "170118.516000", "170118.518000", "170118.522000", "170118.524000", "170118.527000", "170118.530000", "170138.450000", "170138.453000", "170138.456000", "170138.459000", "170138.462000", "170138.465000", "170138.468000", "170138.471000", "170138.474000", "170138.477000", "170138.480000", "170138.483000", "170138.486000", "170138.489000", "170138.492000", "170138.495000", "170138.498000", "170138.501000", "170138.504000", "170138.507000", "170138.510000", "170138.513000", "170138.516000", "170138.519000", "170138.522000", "170138.524000", "170138.527000", "170138.530000", "170158.449000", "170158.452000", "170158.455000", "170158.458000", "170158.461000", "170158.464000", "170158.467000", "170158.470000", "170158.473000", "170158.476000", "170158.479000", "170158.482000", "170158.485000", "170158.488000", "170158.491000", "170158.494000", "170158.497000", "170158.500000", "170158.503000", "170158.506000", "170158.509000", "170158.512000", "170158.515000", "170158.518000", "170158.521000", "170158.524000", "170158.527000", "170158.529000", "170218.449000", "170218.452000", "170218.455000", "170218.458000", "170218.461000", "170218.464000", "170218.467000", "170218.470000", "170218.473000", "170218.476000", "170218.479000", "170218.482000", "170218.485000", "170218.488000", "170218.491000", "170218.494000", "170218.497000", "170218.500000", "170218.503000", "170218.506000", "170218.509000", "170218.512000", "170218.515000", "170218.518000", "170218.521000", "170218.524000", "170218.527000", "170218.529000", "170238.449000", "170238.452000", "170238.455000", "170238.458000", "170238.461000", "170238.464000", "170238.467000", "170238.470000", "170238.473000", "170238.476000", "170238.482000", "170238.488000", "170238.491000", "170238.494000", "170238.497000", "170238.500000", "170238.503000", "170238.506000", "170238.509000", "170238.512000", "170238.523000", "170238.525000", "170238.528000", "170238.531000", "170238.534000", "170238.537000", "170238.544000", "170258.449000", "170258.452000", "170258.455000", "170258.465000", "170258.468000", "170258.471000", "170258.475000", "170258.480000", "170258.483000", "170258.486000", "170258.489000", "170258.500000", "170258.503000", "170258.507000", "170258.510000", "170258.513000", "170258.516000", "170258.521000", "170258.526000", "170258.530000", "170258.588000"],
      "InstanceCreationTime": ["170058.487000", "170058.491000", "170058.494000", "170058.497000", "170058.500000", "170058.503000", "170058.506000", "170058.509000", "170058.512000", "170058.515000", "170058.518000", "170058.527000", "170058.530000", "170058.533000", "170058.536000", "170058.539000", "170058.541000", "170058.544000", "170058.547000", "170058.550000", "170058.553000", "170058.556000", "170058.559000", "170058.562000", "170058.565000", "170058.568000", "170058.571000", "170058.574000", "170058.577000", "170058.580000", "170058.583000", "170058.586000", "170118.450000", "170118.453000", "170118.456000", "170118.459000", "170118.462000", "170118.465000", "170118.468000", "170118.471000", "170118.474000", "170118.477000", "170118.480000", "170118.483000", "170118.486000", "170118.489000", "170118.492000", "170118.495000", "170118.498000", "170118.501000", "170118.504000", "170118.507000", "170118.510000", "170118.513000", "170118.516000", "170118.518000", "170118.522000", "170118.524000", "170118.527000", "170118.530000", "170138.450000", "170138.453000", "170138.456000", "170138.459000", "170138.462000", "170138.465000", "170138.468000", "170138.471000", "170138.474000", "170138.477000", "170138.480000", "170138.483000", "170138.486000", "170138.489000", "170138.492000", "170138.495000", "170138.498000", "170138.501000", "170138.504000", "170138.507000", "170138.510000", "170138.513000", "170138.516000", "170138.519000", "170138.522000", "170138.524000", "170138.527000", "170138.530000", "170158.449000", "170158.452000", "170158.455000", "170158.458000", "170158.461000", "170158.464000", "170158.467000", "170158.470000", "170158.473000", "170158.476000", "170158.479000", "170158.482000", "170158.485000", "170158.488000", "170158.491000", "170158.494000", "170158.497000", "170158.500000", "170158.503000", "170158.506000", "170158.509000", "170158.512000", "170158.515000", "170158.518000", "170158.521000", "170158.524000", "170158.527000", "170158.529000", "170218.449000", "170218.452000", "170218.455000", "170218.458000", "170218.461000", "170218.464000", "170218.467000", "170218.470000", "170218.473000", "170218.476000", "170218.479000", "170218.482000", "170218.485000", "170218.488000", "170218.491000", "170218.494000", "170218.497000", "170218.500000", "170218.503000", "170218.506000", "170218.509000", "170218.512000", "170218.515000", "170218.518000", "170218.521000", "170218.524000", "170218.527000", "170218.529000", "170238.449000", "170238.452000", "170238.455000", "170238.458000", "170238.461000", "170238.464000", "170238.467000", "170238.470000", "170238.473000", "170238.476000", "170238.482000", "170238.488000", "170238.491000", "170238.494000", "170238.497000", "170238.500000", "170238.503000", "170238.506000", "170238.509000", "170238.512000", "170238.523000", "170238.525000", "170238.528000", "170238.531000", "170238.534000", "170238.537000", "170238.544000", "170258.449000", "170258.452000", "170258.455000", "170258.465000", "170258.468000", "170258.471000", "170258.475000", "170258.480000", "170258.483000", "170258.486000", "170258.489000", "170258.500000", "170258.503000", "170258.507000", "170258.510000", "170258.513000", "170258.516000", "170258.521000", "170258.526000", "170258.530000", "170258.588000"],
      "InstanceNumber": [1, 2, 3, 4, 5, 6, 7, 8, 9, 10, 11, 12, 13, 14, 15, 16, 17, 18, 19, 20, 21, 22, 23, 24, 25, 26, 27, 28, 29, 30, 31, 32, 33, 34, 35, 36, 37, 38, 39, 40, 41, 42, 43, 44, 45, 46, 47, 48, 49, 50, 51, 52, 53, 54, 55, 56, 57, 58, 59, 60, 61, 62, 63, 64, 65, 66, 67, 68, 69, 70, 71, 72, 73, 74, 75, 76, 77, 78, 79, 80, 81, 82, 83, 84, 85, 86, 87, 88, 89, 90, 91, 92, 93, 94, 95, 96, 97, 98, 99, 100, 101, 102, 103, 104, 105, 106, 107, 108, 109, 110, 111, 112, 113, 114, 115, 116, 117, 118, 119, 120, 121, 122, 123, 124, 125, 126, 127, 128, 129, 130, 131, 132, 133, 134, 135, 136, 137, 138, 139, 140, 141, 142, 143, 144, 145, 146, 147, 148, 149, 150, 151, 152, 153, 154, 155, 156, 157, 158, 159, 160, 161, 162, 163, 164, 165, 166, 167, 168, 169, 170, 171, 172, 173, 174, 175, 176, 177, 178, 179, 180, 181, 182, 183, 184, 185, 186, 187, 188, 189, 190, 191, 192],
      "LargestImagePixelValue": [35593, 36068, 34546, 34564, 34106, 34001, 36074, 34491, 34148, 33629, 35184, 35667, 33945, 34123, 34213, 35895, 35446, 34749, 33946, 35444, 35692, 34615, 33786, 34325, 35976, 34598, 33592, 33840, 35283, 35720, 33236, 33272, 33871, 33470, 34904, 35911, 35740, 33873, 33216, 33731, 33770, 35333, 35989, 35862, 34795, 33766, 33691, 35134, 34764, 35107, 35533, 36531, 36378, 35604, 34162, 34740, 34675, 35084, 35365, 36171, 35270, 33878, 35216, 34984, 35283, 35926, 37454, 36451, 34963, 35542, 36918, 37498, 37268, 35701, 35575, 35866, 36261, 36748, 37569, 36766, 35440, 35616, 35231, 35743, 36029, 35862, 36921, 36727, 36476, 36247, 36059, 35553, 35214, 34988, 34285, 34475, 34387, 34529, 34670, 34852, 35314, 36174, 37363, 35363, 35949, 34473, 35408, 36391, 36944, 35727, 35524, 36801, 35486, 35592, 36650, 36905, 36288, 36973, 36760, 36520, 36125, 36225, 35550, 36074, 35386, 35227, 35616, 35516, 36394, 37085, 36634, 35656, 35048, 35982, 35884, 36025, 35505, 35114, 35590, 35954, 35964, 35450, 35377, 35237, 35465, 35191, 35234, 35109, 35547, 36069, 35692, 34915, 34556, 33426, 34801, 34647, 34057, 33211, 33921, 33712, 33305, 33822, 33890, 32018, 33840, 34812, 34951, 34698, 34223, 35394, 35893, 34314, 35096, 35615, 35433, 33776, 35607, 35047, 34930, 34193, 33576, 33480, 35075, 35751, 33631, 32877, 33207, 33427, 33695, 34764, 35657, 35459],
      "WindowCenter": [9497.0, 9470.0, 9440.0, 9430.0, 9422.0, 9412.0, 9444.0, 9434.0, 9427.0, 9421.0, 9434.0, 9441.0, 9414.0, 9420.0, 9421.0, 9439.0, 9433.0, 9432.0, 9430.0, 9450.0, 9458.0, 9438.0, 9432.0, 9436.0, 9448.0, 9437.0, 9423.0, 9431.0, 9451.0, 9466.0, 9438.0, 9435.0, 9433.0, 9427.0, 9436.0, 9447.0, 9447.0, 9431.0, 9426.0, 9434.0, 9441.0, 9453.0, 9457.0, 9447.0, 9434.0, 9421.0, 9413.0, 9438.0, 9433.0, 9439.0, 9440.0, 9445.0, 9451.0, 9437.0, 9418.0, 9433.0, 9437.0, 9452.0, 9462.0, 9475.0, 9456.0, 9434.0, 9438.0, 9430.0, 9435.0, 9440.0, 9460.0, 9456.0, 9436.0, 9443.0, 9456.0, 9467.0, 9460.0, 9441.0, 9434.0, 9438.0, 9445.0, 9446.0, 9459.0, 9453.0, 9433.0, 9435.0, 9434.0, 9440.0, 9446.0, 9448.0, 9464.0, 9471.0, 9467.0, 9467.0, 9465.0, 9444.0, 9436.0, 9436.0, 9421.0, 9419.0, 9418.0, 9418.0, 9420.0, 9444.0, 9463.0, 9494.0, 9515.0, 9491.0, 9481.0, 9452.0, 9454.0, 9456.0, 9454.0, 9441.0, 9434.0, 9444.0, 9433.0, 9427.0, 9444.0, 9444.0, 9439.0, 9451.0, 9452.0, 9453.0, 9438.0, 9437.0, 9428.0, 9426.0, 9420.0, 9423.0, 9446.0, 9460.0, 9482.0, 9483.0, 9476.0, 9455.0, 9438.0, 9441.0, 9433.0, 9433.0, 9425.0, 9425.0, 9432.0, 9437.0, 9430.0, 9430.0, 9431.0, 9424.0, 9423.0, 9424.0, 9425.0, 9425.0, 9431.0, 9438.0, 9438.0, 9433.0, 9427.0, 9411.0, 9429.0, 9429.0, 9424.0, 9411.0, 9423.0, 9417.0, 9427.0, 9437.0, 9453.0, 9439.0, 9465.0, 9469.0, 9452.0, 9434.0, 9424.0, 9432.0, 9429.0, 9405.0, 9415.0, 9413.0, 9413.0, 9395.0, 9413.0, 9413.0, 9407.0, 9402.0, 9388.0, 9387.0, 9406.0, 9420.0, 9397.0, 9393.0, 9400.0, 9402.0, 9414.0, 9428.0, 9436.0, 9435.0],
      "WindowWidth": [20110.0, 20040.0, 19977.0, 19956.0, 19939.0, 19920.0, 19970.0, 19956.0, 19946.0, 19938.0, 19956.0, 19969.0, 19924.0, 19934.0, 19938.0, 19966.0, 19960.0, 19957.0, 19960.0, 19994.0, 20006.0, 19972.0, 19959.0, 19965.0, 19983.0, 19967.0, 19944.0, 19960.0, 19998.0, 20024.0, 19981.0, 19974.0, 19966.0, 19957.0, 19965.0, 19982.0, 19984.0, 19964.0, 19957.0, 19975.0, 19985.0, 20000.0, 20000.0, 19978.0, 19958.0, 19936.0, 19923.0, 19963.0, 19958.0, 19968.0, 19971.0, 19976.0, 19983.0, 19959.0, 19927.0, 19955.0, 19968.0, 19998.0, 20017.0, 20035.0, 20005.0, 19966.0, 19967.0, 19954.0, 19965.0, 19974.0, 20006.0, 20000.0, 19969.0, 19978.0, 19998.0, 20014.0, 20001.0, 19970.0, 19957.0, 19962.0, 19973.0, 19977.0, 19997.0, 19990.0, 19958.0, 19961.0, 19960.0, 19971.0, 19982.0, 19988.0, 20017.0, 20031.0, 20027.0, 20025.0, 20016.0, 19979.0, 19963.0, 19964.0, 19936.0, 19932.0, 19929.0, 19928.0, 19933.0, 19982.0, 20024.0, 20082.0, 20120.0, 20079.0, 20054.0, 20001.0, 19999.0, 19998.0, 19994.0, 19971.0, 19960.0, 19973.0, 19956.0, 19948.0, 19974.0, 19973.0, 19965.0, 19986.0, 19989.0, 19989.0, 19962.0, 19958.0, 19942.0, 19937.0, 19924.0, 19934.0, 19981.0, 20015.0, 20057.0, 20058.0, 20042.0, 20003.0, 19969.0, 19971.0, 19957.0, 19957.0, 19945.0, 19943.0, 19956.0, 19958.0, 19946.0, 19946.0, 19948.0, 19937.0, 19935.0, 19935.0, 19940.0, 19940.0, 19951.0, 19961.0, 19961.0, 19959.0, 19950.0, 19927.0, 19955.0, 19955.0, 19949.0, 19928.0, 19949.0, 19940.0, 19959.0, 19980.0, 20011.0, 19993.0, 20035.0, 20032.0, 19998.0, 19960.0, 19939.0, 19946.0, 19940.0, 19901.0, 19916.0, 19912.0, 19911.0, 19883.0, 19910.0, 19910.0, 19899.0, 19895.0, 19872.0, 19868.0, 19902.0, 19927.0, 19893.0, 19889.0, 19901.0, 19906.0, 19924.0, 19946.0, 19960.0, 19960.0]
    },
    "slices": {}
  },
  "NumberOfVolumes": 192
}