{
  "aor": 0.0005501052631578947,
  "aqi": 0.0052350242105263164,
  "bids_meta": {
    "AcquisitionMatrixPE": 104,
    "AcquisitionNumber": 1,
    "AcquisitionTime": "14:21:9.447500",
    "BandwidthPerPixelPhaseEncode": 16.578,
    "BaseResolution": 104,
    "BodyPartExamined": "BRAIN",
    "CogAtlasID": "TODO",
    "ConsistencyInfo": "N4_VE11C_LATEST_20160120",
    "ConversionSoftware": "dcm2niix",
    "ConversionSoftwareVersion": "v1.0.20190902",
    "DerivedVendorReportedEchoSpacing": 0.000580009,
    "DeviceSerialNumber": "166018",
    "DwellTime": 2.1e-06,
    "EchoTime": 0.037,
    "EchoTrainLength": 104,
    "EffectiveEchoSpacing": 0.000580009,
    "FlipAngle": 68,
    "ImageComments": "Unaliased_MB6_PE3_LB",
    "ImageOrientationPatientDICOM": [
      0.989382,
      -0.12192,
      0.0791149,
      0.134473,
      0.974424,
      -0.180039
    ],
    "ImageType": [
      "ORIGINAL",
      "PRIMARY",
      "FMRI",
      "NONE",
      "MB",
      "ND",
      "MOSAIC"
    ],
    "ImagingFrequency": 123.191,
    "InPlanePhaseEncodingDirectionDICOM": "COL",
    "InstitutionAddress": "Washington_Place_6_NYC_NYC_US_10003",
    "InstitutionName": "NYU_-_CBI",
    "InstitutionalDepartmentName": "Department",
    "MRAcquisitionType": "2D",
    "MagneticFieldStrength": 3,
    "Manufacturer": "Siemens",
    "ManufacturersModelName": "Prisma",
    "Modality": "MR",
    "MultibandAccelerationFactor": 6,
    "NumberOfVolumes": 192,
    "PartialFourier": 1,
    "PatientPosition": "HFS",
    "PercentPhaseFOV": 100,
    "PhaseEncodingDirection": "j",
    "PhaseEncodingSteps": 104,
    "PhaseResolution": 1,
    "PixelBandwidth": 2290,
    "ProcedureStepDescription": "Investigators_Winawer",
    "ProtocolName": "cmrr_mbepi_s6_2mm_66sl_PA_task-prf",
    "PulseSequenceDetails": "%CustomerSeq%_cmrr_mbep2d_bold",
    "ReceiveCoilActiveElements": "HC1-7",
    "ReceiveCoilName": "HeadNeck_64",
    "ReconMatrixPE": 104,
    "RepetitionTime": 1,
    "SAR": 0.0750268,
    "ScanOptions": "FS",
    "ScanningSequence": "EP",
    "SequenceName": "epfid2d1_104",
    "SequenceVariant": "SK_SS",
    "SeriesDescription": "cmrr_mbepi_s6_2mm_66sl_PA_task-prf",
    "SeriesNumber": 32,
    "ShimSetting": [
      238,
      -12616,
      -8498,
      285,
      -127,
      41,
      -125,
      36
    ],
    "SliceThickness": 2,
    "SliceTiming": [
      0,
      0.535,
      0.09,
      0.625,
      0.18,
      0.7125,
      0.2675,
      0.8025,
      0.3575,
      0.8925,
      0.4475,
      0,
      0.535,
      0.09,
      0.625,
      0.18,
      0.7125,
      0.2675,
      0.8025,
      0.3575,
      0.8925,
      0.4475,
      0,
      0.535,
      0.09,
      0.625,
      0.18,
      0.7125,
      0.2675,
      0.8025,
      0.3575,
      0.8925,
      0.4475,
      0,
      0.535,
      0.09,
      0.625,
      0.18,
      0.7125,
      0.2675,
      0.8025,
      0.3575,
      0.8925,
      0.4475,
      0,
      0.535,
      0.09,
      0.625,
      0.18,
      0.7125,
      0.2675,
      0.8025,
      0.3575,
      0.8925,
      0.4475,
      0,
      0.535,
      0.09,
      0.625,
      0.18,
      0.7125,
      0.2675,
      0.8025,
      0.3575,
      0.8925,
      0.4475
    ],
    "SoftwareVersions": "syngo_MR_E11",
    "SpacingBetweenSlices": 2,
    "StationName": "AWP166018",
    "TaskName": "prf",
    "TotalReadoutTime": 0.0597409,
    "TxRefAmp": 203.648,
    "WipMemBlock": "affbce08-6ce2-45af-857d-ecc1bb429bc4||Sequence: R016 ve11c/master r/8780670; Nov 27 2017 15:05:12 by eja",
    "acq_id": "PA",
    "dataset": "unknown",
    "dcmmeta_affine": [
      [
        -1.9787636995315552,
        0.26894611120224,
        0.11028233915567398,
        94.43787384033203
      ],
      [
        0.24383917450904846,
        1.9488487243652344,
        -0.3775327503681183,
        -93.57462310791016
      ],
      [
        0.1582297831773758,
        0.36007845401763916,
        1.9609453678131104,
        -72.21621704101562
      ],
      [
        0.0,
        0.0,
        0.0,
        1.0
      ]
    ],
    "dcmmeta_reorient_transform": [
      [
        0.0,
        -1.0,
        0.0,
        103.0
      ],
      [
        1.0,
        0.0,
        0.0,
        0.0
      ],
      [
        0.0,
        0.0,
        1.0,
        0.0
      ],
      [
        0.0,
        0.0,
        0.0,
        1.0
      ]
    ],
    "dcmmeta_shape": [
      104,
      104,
      66,
      192
    ],
    "dcmmeta_slice_dim": 2,
    "dcmmeta_version": 0.6,
    "global": {
      "const": {
        "AccessionNumber": "ju9s13g6",
        "AcquisitionMatrix": [
          104,
          0,
          0,
          104
        ],
        "AngioFlag": "N",
        "BitsAllocated": 16,
        "BitsStored": 16,
        "BodyPartExamined": "BRAIN",
        "Columns": 936,
        "EchoNumbers": 1,
        "EchoTime": 37.0,
        "EchoTrainLength": 104,
        "FlipAngle": 68.0,
        "HighBit": 15,
        "ImageOrientationPatient": [
          0.98938185192399,
          -0.1219195857489,
          0.07911488920723,
          0.13447305558157,
          0.97442437955664,
          -0.1800392341913
        ],
        "ImagePositionPatient": [
          -1057.1866076937,
          -816.44078865505,
          48.8409231417
        ],
        "ImageType": [
          "ORIGINAL",
          "PRIMARY",
          "FMRI",
          "NONE",
          "MB",
          "ND",
          "MOSAIC"
        ],
        "ImagedNucleus": "1H",
        "ImagingFrequency": 123.191058,
        "InPlanePhaseEncodingDirection": "COL",
        "MRAcquisitionType": "2D",
        "MagneticFieldStrength": 3.0,
        "Manufacturer": "SIEMENS",
        "ManufacturerModelName": "Prisma",
        "Modality": "MR",
        "NumberOfAverages": 1.0,
        "NumberOfPhaseEncodingSteps": 104,
        "PercentPhaseFieldOfView": 100.0,
        "PercentSampling": 100.0,
        "PerformedProcedureStepStartTime": "135754.892000",
        "PhotometricInterpretation": "MONOCHROME2",
        "PixelBandwidth": 2290.0,
        "PixelRepresentation": 0,
        "PixelSpacing": [
          2.0,
          2.0
        ],
        "ProtocolName": "cmrr_mbepi_s6_2mm_66sl_PA_task-prf",
        "RepetitionTime": 1000.0,
        "Rows": 936,
        "SAR": 0.07502680740289,
        "SamplesPerPixel": 1,
        "ScanOptions": "FS",
        "ScanningSequence": "EP",
        "SequenceName": "epfid2d1_104",
        "SequenceVariant": [
          "SK",
          "SS"
        ],
        "SeriesDescription": "cmrr_mbepi_s6_2mm_66sl_PA_task-prf",
        "SeriesNumber": 32,
        "SeriesTime": "142206.694000",
        "SliceLocation": -47.934869565641,
        "SliceThickness": 2.0,
        "SmallestImagePixelValue": 0,
        "SoftwareVersions": "syngo MR E11",
        "SpacingBetweenSlices": 2.0000000306811,
        "SpecificCharacterSet": "ISO_IR 100",
        "StudyID": "1",
        "StudyTime": "135754.839000",
        "TransmitCoilName": "Body",
        "VariableFlipAngleFlag": "N",
        "WindowCenterWidthExplanation": "Algo1",
        "dBdt": 0.0
      },
      "slices": {}
    },
    "modality": "bold",
    "run_id": 5,
    "session_id": "nyu3t01",
    "subject_id": "wlsubj086",
    "task_id": "prf",
    "time": {
      "samples": {
        "AcquisitionNumber": [
          1,
          2,
          3,
          4,
          5,
          6,
          7,
          8,
          9,
          10,
          11,
          12,
          13,
          14,
          15,
          16,
          17,
          18,
          19,
          20,
          21,
          22,
          23,
          24,
          25,
          26,
          27,
          28,
          29,
          30,
          31,
          32,
          33,
          34,
          35,
          36,
          37,
          38,
          39,
          40,
          41,
          42,
          43,
          44,
          45,
          46,
          47,
          48,
          49,
          50,
          51,
          52,
          53,
          54,
          55,
          56,
          57,
          58,
          59,
          60,
          61,
          62,
          63,
          64,
          65,
          66,
          67,
          68,
          69,
          70,
          71,
          72,
          73,
          74,
          75,
          76,
          77,
          78,
          79,
          80,
          81,
          82,
          83,
          84,
          85,
          86,
          87,
          88,
          89,
          90,
          91,
          92,
          93,
          94,
          95,
          96,
          97,
          98,
          99,
          100,
          101,
          102,
          103,
          104,
          105,
          106,
          107,
          108,
          109,
          110,
          111,
          112,
          113,
          114,
          115,
          116,
          117,
          118,
          119,
          120,
          121,
          122,
          123,
          124,
          125,
          126,
          127,
          128,
          129,
          130,
          131,
          132,
          133,
          134,
          135,
          136,
          137,
          138,
          139,
          140,
          141,
          142,
          143,
          144,
          145,
          146,
          147,
          148,
          149,
          150,
          151,
          152,
          153,
          154,
          155,
          156,
          157,
          158,
          159,
          160,
          161,
          162,
          163,
          164,
          165,
          166,
          167,
          168,
          169,
          170,
          171,
          172,
          173,
          174,
          175,
          176,
          177,
          178,
          179,
          180,
          181,
          182,
          183,
          184,
          185,
          186,
          187,
          188,
          189,
          190,
          191,
          192
        ],
        "AcquisitionTime": [
          "142109.447500",
          "142110.447500",
          "142111.447500",
          "142112.447500",
          "142113.447500",
          "142114.447500",
          "142115.447500",
          "142116.447500",
          "142117.447500",
          "142118.447500",
          "142119.447500",
          "142120.447500",
          "142121.447500",
          "142122.447500",
          "142123.447500",
          "142124.447500",
          "142125.447500",
          "142126.447500",
          "142127.447500",
          "142128.447500",
          "142129.447500",
          "142130.447500",
          "142131.447500",
          "142132.447500",
          "142133.447500",
          "142134.447500",
          "142135.447500",
          "142136.447500",
          "142137.447500",
          "142138.447500",
          "142139.447500",
          "142140.447500",
          "142141.447500",
          "142142.447500",
          "142143.447500",
          "142144.447500",
          "142145.447500",
          "142146.447500",
          "142147.447500",
          "142148.447500",
          "142149.447500",
          "142150.447500",
          "142151.447500",
          "142152.447500",
          "142153.447500",
          "142154.447500",
          "142155.447500",
          "142156.447500",
          "142157.447500",
          "142158.447500",
          "142159.447500",
          "142200.447500",
          "142201.447500",
          "142202.447500",
          "142203.447500",
          "142204.447500",
          "142205.447500",
          "142206.447500",
          "142207.447500",
          "142208.447500",
          "142209.447500",
          "142210.447500",
          "142211.447500",
          "142212.447500",
          "142213.447500",
          "142214.447500",
          "142215.447500",
          "142216.447500",
          "142217.447500",
          "142218.447500",
          "142219.447500",
          "142220.447500",
          "142221.447500",
          "142222.447500",
          "142223.447500",
          "142224.447500",
          "142225.447500",
          "142226.447500",
          "142227.447500",
          "142228.447500",
          "142229.447500",
          "142230.447500",
          "142231.447500",
          "142232.447500",
          "142233.447500",
          "142234.447500",
          "142235.447500",
          "142236.447500",
          "142237.447500",
          "142238.447500",
          "142239.447500",
          "142240.447500",
          "142241.447500",
          "142242.447500",
          "142243.447500",
          "142244.447500",
          "142245.447500",
          "142246.447500",
          "142247.447500",
          "142248.447500",
          "142249.447500",
          "142250.447500",
          "142251.447500",
          "142252.447500",
          "142253.447500",
          "142254.447500",
          "142255.447500",
          "142256.447500",
          "142257.447500",
          "142258.447500",
          "142259.447500",
          "142300.447500",
          "142301.447500",
          "142302.447500",
          "142303.447500",
          "142304.447500",
          "142305.447500",
          "142306.447500",
          "142307.447500",
          "142308.447500",
          "142309.447500",
          "142310.447500",
          "142311.447500",
          "142312.447500",
          "142313.447500",
          "142314.447500",
          "142315.447500",
          "142316.447500",
          "142317.447500",
          "142318.447500",
          "142319.447500",
          "142320.447500",
          "142321.447500",
          "142322.447500",
          "142323.447500",
          "142324.447500",
          "142325.447500",
          "142326.447500",
          "142327.447500",
          "142328.447500",
          "142329.447500",
          "142330.447500",
          "142331.447500",
          "142332.447500",
          "142333.447500",
          "142334.447500",
          "142335.447500",
          "142336.447500",
          "142337.447500",
          "142338.447500",
          "142339.447500",
          "142340.447500",
          "142341.447500",
          "142342.447500",
          "142343.447500",
          "142344.447500",
          "142345.447500",
          "142346.447500",
          "142347.447500",
          "142348.447500",
          "142349.447500",
          "142350.447500",
          "142351.447500",
          "142352.447500",
          "142353.447500",
          "142354.447500",
          "142355.447500",
          "142356.447500",
          "142357.447500",
          "142358.447500",
          "142359.447500",
          "142400.447500",
          "142401.447500",
          "142402.447500",
          "142403.447500",
          "142404.447500",
          "142405.447500",
          "142406.447500",
          "142407.447500",
          "142408.447500",
          "142409.447500",
          "142410.447500",
          "142411.447500",
          "142412.447500",
          "142413.447500",
          "142414.447500",
          "142415.447500",
          "142416.447500",
          "142417.447500",
          "142418.447500",
          "142419.447500",
          "142420.447500"
        ],
        "ContentTime": [
          "142206.699000",
          "142207.310000",
          "142208.062000",
          "142208.711000",
          "142209.477000",
          "142210.210000",
          "142210.919000",
          "142211.648000",
          "142212.407000",
          "142213.040000",
          "142213.756000",
          "142214.516000",
          "142215.186000",
          "142215.937000",
          "142216.593000",
          "142217.355000",
          "142218.036000",
          "142218.817000",
          "142219.507000",
          "142220.250000",
          "142220.892000",
          "142221.653000",
          "142222.318000",
          "142223.144000",
          "142223.800000",
          "142224.541000",
          "142225.243000",
          "142225.974000",
          "142226.618000",
          "142227.365000",
          "142228.010000",
          "142228.757000",
          "142229.425000",
          "142230.246000",
          "142230.834000",
          "142231.565000",
          "142232.262000",
          "142233.001000",
          "142233.658000",
          "142234.399000",
          "142235.084000",
          "142235.814000",
          "142236.464000",
          "142237.223000",
          "142237.925000",
          "142238.644000",
          "142239.311000",
          "142240.031000",
          "142240.741000",
          "142241.423000",
          "142242.154000",
          "142242.895000",
          "142243.545000",
          "142244.372000",
          "142245.046000",
          "142245.734000",
          "142246.432000",
          "142247.213000",
          "142247.869000",
          "142248.554000",
          "142249.278000",
          "142249.974000",
          "142250.659000",
          "142251.389000",
          "142252.058000",
          "142252.770000",
          "142253.455000",
          "142254.236000",
          "142254.870000",
          "142255.588000",
          "142256.244000",
          "142257.015000",
          "142257.649000",
          "142258.420000",
          "142259.069000",
          "142259.822000",
          "142300.473000",
          "142301.237000",
          "142301.865000",
          "142302.595000",
          "142303.297000",
          "142304.021000",
          "142304.706000",
          "142305.442000",
          "142306.122000",
          "142306.835000",
          "142307.524000",
          "142308.248000",
          "142308.951000",
          "142309.641000",
          "142310.349000",
          "142311.045000",
          "142311.763000",
          "142312.442000",
          "142313.218000",
          "142313.829000",
          "142314.577000",
          "142315.233000",
          "142315.986000",
          "142316.638000",
          "142317.356000",
          "142318.035000",
          "142318.765000",
          "142319.444000",
          "142320.226000",
          "142320.905000",
          "142321.624000",
          "142322.405000",
          "142323.057000",
          "142323.809000",
          "142324.482000",
          "142325.229000",
          "142325.886000",
          "142326.633000",
          "142327.300000",
          "142328.060000",
          "142328.733000",
          "142329.486000",
          "142330.218000",
          "142330.885000",
          "142331.565000",
          "142332.291000",
          "142332.958000",
          "142333.762000",
          "142334.384000",
          "142335.160000",
          "142335.799000",
          "142336.512000",
          "142337.248000",
          "142337.922000",
          "142338.606000",
          "142339.331000",
          "142340.033000",
          "142340.701000",
          "142341.442000",
          "142342.093000",
          "142342.829000",
          "142343.502000",
          "142344.238000",
          "142344.894000",
          "142345.647000",
          "142346.321000",
          "142347.074000",
          "142347.805000",
          "142348.563000",
          "142349.242000",
          "142349.968000",
          "142350.641000",
          "142351.349000",
          "142352.039000",
          "142352.741000",
          "142353.546000",
          "142354.236000",
          "142354.984000",
          "142355.645000",
          "142356.427000",
          "142357.100000",
          "142357.831000",
          "142358.510000",
          "142359.235000",
          "142359.885000",
          "142400.644000",
          "142401.289000",
          "142402.042000",
          "142402.687000",
          "142403.464000",
          "142404.148000",
          "142404.964000",
          "142405.625000",
          "142406.396000",
          "142407.053000",
          "142407.811000",
          "142408.548000",
          "142409.249000",
          "142409.940000",
          "142410.671000",
          "142411.355000",
          "142412.103000",
          "142412.759000",
          "142413.489000",
          "142414.842000",
          "142414.910000",
          "142415.584000",
          "142416.354000",
          "142417.006000",
          "142417.775000",
          "142418.459000",
          "142419.236000",
          "142419.864000",
          "142420.618000",
          "142421.296000",
          "142422.295000"
        ],
        "InstanceCreationTime": [
          "142206.699000",
          "142207.310000",
          "142208.062000",
          "142208.711000",
          "142209.477000",
          "142210.210000",
          "142210.919000",
          "142211.648000",
          "142212.407000",
          "142213.040000",
          "142213.756000",
          "142214.516000",
          "142215.186000",
          "142215.937000",
          "142216.593000",
          "142217.355000",
          "142218.036000",
          "142218.817000",
          "142219.507000",
          "142220.250000",
          "142220.892000",
          "142221.653000",
          "142222.318000",
          "142223.144000",
          "142223.800000",
          "142224.541000",
          "142225.243000",
          "142225.974000",
          "142226.618000",
          "142227.365000",
          "142228.010000",
          "142228.757000",
          "142229.425000",
          "142230.246000",
          "142230.834000",
          "142231.565000",
          "142232.262000",
          "142233.001000",
          "142233.658000",
          "142234.399000",
          "142235.084000",
          "142235.814000",
          "142236.464000",
          "142237.223000",
          "142237.925000",
          "142238.644000",
          "142239.311000",
          "142240.031000",
          "142240.741000",
          "142241.423000",
          "142242.154000",
          "142242.895000",
          "142243.545000",
          "142244.372000",
          "142245.046000",
          "142245.734000",
          "142246.432000",
          "142247.213000",
          "142247.869000",
          "142248.554000",
          "142249.278000",
          "142249.974000",
          "142250.659000",
          "142251.389000",
          "142252.058000",
          "142252.770000",
          "142253.455000",
          "142254.236000",
          "142254.870000",
          "142255.588000",
          "142256.244000",
          "142257.015000",
          "142257.649000",
          "142258.420000",
          "142259.069000",
          "142259.822000",
          "142300.473000",
          "142301.237000",
          "142301.865000",
          "142302.595000",
          "142303.297000",
          "142304.021000",
          "142304.706000",
          "142305.442000",
          "142306.122000",
          "142306.835000",
          "142307.524000",
          "142308.248000",
          "142308.951000",
          "142309.641000",
          "142310.349000",
          "142311.045000",
          "142311.763000",
          "142312.442000",
          "142313.218000",
          "142313.829000",
          "142314.577000",
          "142315.233000",
          "142315.986000",
          "142316.638000",
          "142317.356000",
          "142318.035000",
          "142318.765000",
          "142319.444000",
          "142320.226000",
          "142320.905000",
          "142321.624000",
          "142322.405000",
          "142323.057000",
          "142323.809000",
          "142324.482000",
          "142325.229000",
          "142325.886000",
          "142326.633000",
          "142327.300000",
          "142328.060000",
          "142328.733000",
          "142329.486000",
          "142330.218000",
          "142330.885000",
          "142331.565000",
          "142332.291000",
          "142332.958000",
          "142333.762000",
          "142334.384000",
          "142335.160000",
          "142335.799000",
          "142336.512000",
          "142337.248000",
          "142337.922000",
          "142338.606000",
          "142339.331000",
          "142340.033000",
          "142340.701000",
          "142341.442000",
          "142342.093000",
          "142342.829000",
          "142343.502000",
          "142344.238000",
          "142344.894000",
          "142345.647000",
          "142346.321000",
          "142347.074000",
          "142347.805000",
          "142348.563000",
          "142349.242000",
          "142349.968000",
          "142350.641000",
          "142351.349000",
          "142352.039000",
          "142352.741000",
          "142353.546000",
          "142354.236000",
          "142354.984000",
          "142355.645000",
          "142356.427000",
          "142357.100000",
          "142357.831000",
          "142358.510000",
          "142359.235000",
          "142359.885000",
          "142400.644000",
          "142401.289000",
          "142402.042000",
          "142402.687000",
          "142403.464000",
          "142404.148000",
          "142404.964000",
          "142405.625000",
          "142406.396000",
          "142407.053000",
          "142407.811000",
          "142408.548000",
          "142409.249000",
          "142409.940000",
          "142410.671000",
          "142411.355000",
          "142412.103000",
          "142412.759000",
          "142413.489000",
          "142414.842000",
          "142414.910000",
          "142415.584000",
          "142416.354000",
          "142417.006000",
          "142417.775000",
          "142418.459000",
          "142419.236000",
          "142419.864000",
          "142420.618000",
          "142421.296000",
          "142422.295000"
        ],
        "InstanceNumber": [
          1,
          2,
          3,
          4,
          5,
          6,
          7,
          8,
          9,
          10,
          11,
          12,
          13,
          14,
          15,
          16,
          17,
          18,
          19,
          20,
          21,
          22,
          23,
          24,
          25,
          26,
          27,
          28,
          29,
          30,
          31,
          32,
          33,
          34,
          35,
          36,
          37,
          38,
          39,
          40,
          41,
          42,
          43,
          44,
          45,
          46,
          47,
          48,
          49,
          50,
          51,
          52,
          53,
          54,
          55,
          56,
          57,
          58,
          59,
          60,
          61,
          62,
          63,
          64,
          65,
          66,
          67,
          68,
          69,
          70,
          71,
          72,
          73,
          74,
          75,
          76,
          77,
          78,
          79,
          80,
          81,
          82,
          83,
          84,
          85,
          86,
          87,
          88,
          89,
          90,
          91,
          92,
          93,
          94,
          95,
          96,
          97,
          98,
          99,
          100,
          101,
          102,
          103,
          104,
          105,
          106,
          107,
          108,
          109,
          110,
          111,
          112,
          113,
          114,
          115,
          116,
          117,
          118,
          119,
          120,
          121,
          122,
          123,
          124,
          125,
          126,
          127,
          128,
          129,
          130,
          131,
          132,
          133,
          134,
          135,
          136,
          137,
          138,
          139,
          140,
          141,
          142,
          143,
          144,
          145,
          146,
          147,
          148,
          149,
          150,
          151,
          152,
          153,
          154,
          155,
          156,
          157,
          158,
          159,
          160,
          161,
          162,
          163,
          164,
          165,
          166,
          167,
          168,
          169,
          170,
          171,
          172,
          173,
          174,
          175,
          176,
          177,
          178,
          179,
          180,
          181,
          182,
          183,
          184,
          185,
          186,
          187,
          188,
          189,
          190,
          191,
          192
        ],
        "LargestImagePixelValue": [
          30266,
          30160,
          29636,
          29903,
          29897,
          30293,
          29790,
          29790,
          29833,
          29989,
          30306,
          30238,
          29842,
          29978,
          30052,
          30093,
          30379,
          30032,
          30026,
          30303,
          30126,
          29749,
          29623,
          29892,
          29995,
          29635,
          29681,
          30118,
          31793,
          30283,
          29976,
          29937,
          29932,
          29922,
          29870,
          29821,
          30193,
          29899,
          30162,
          30190,
          30481,
          30232,
          30145,
          30093,
          30083,
          29628,
          29402,
          29428,
          29249,
          29380,
          29515,
          29504,
          30070,
          29981,
          29819,
          30148,
          30102,
          29990,
          30248,
          30210,
          30231,
          29846,
          29452,
          29924,
          29680,
          29899,
          30321,
          30659,
          30062,
          30252,
          30374,
          30226,
          30268,
          29798,
          29878,
          29703,
          30006,
          29741,
          29790,
          29995,
          29312,
