{
  "aor": 0.000461875,
  "aqi": 0.00532463515625,
  "bids_meta": {
    "AcquisitionMatrixPE": 104,
    "AcquisitionNumber": 1,
    "AcquisitionTime": "15:33:52.437500",
    "BandwidthPerPixelPhaseEncode": 16.578,
    "BaseResolution": 104,
    "BodyPartExamined": "BRAIN",
    "CogAtlasID": "TODO",
    "ConsistencyInfo": "N4_VE11C_LATEST_20160120",
    "ConversionSoftware": "dcm2niix",
    "ConversionSoftwareVersion": "v1.0.20190902",
    "DerivedVendorReportedEchoSpacing": 0.000580009,
    "DeviceSerialNumber": "166018",
    "DwellTime": 2.1e-06,
    "EchoTime": 0.037,
    "EchoTrainLength": 104,
    "EffectiveEchoSpacing": 0.000580009,
    "FlipAngle": 68,
    "ImageComments": "Unaliased_MB6_PE3_LB",
    "ImageOrientationPatientDICOM": [
      0.996592,
      -0.0811619,
      0.0147694,
      0.0821099,
      0.958641,
      -0.272518
    ],
    "ImageType": [
      "ORIGINAL",
      "PRIMARY",
      "M",
      "MB",
      "ND",
      "MOSAIC"
    ],
    "ImagingFrequency": 123.191,
    "InPlanePhaseEncodingDirectionDICOM": "COL",
    "InstitutionAddress": "Washington_Place_6_NYC_NYC_US_10003",
    "InstitutionName": "NYU_-_CBI",
    "InstitutionalDepartmentName": "Department",
    "MRAcquisitionType": "2D",
    "MagneticFieldStrength": 3,
    "Manufacturer": "Siemens",
    "ManufacturersModelName": "Prisma",
    "Modality": "MR",
    "MultibandAccelerationFactor": 6,
    "NumberOfVolumes": 192,
    "PartialFourier": 1,
    "PatientPosition": "HFS",
    "PercentPhaseFOV": 100,
    "PhaseEncodingDirection": "j",
    "PhaseEncodingSteps": 104,
    "PhaseResolution": 1,
    "PixelBandwidth": 2290,
    "ProcedureStepDescription": "Investigators_Winawer",
    "ProtocolName": "cmrr_mbepi_s6_2mm_66sl_PA_task-prf",
    "PulseSequenceDetails": "%CustomerSeq%_cmrr_mbep2d_bold",
    "ReceiveCoilActiveElements": "HC1-7",
    "ReceiveCoilName": "HeadNeck_64",
    "ReconMatrixPE": 104,
    "RepetitionTime": 1,
    "SAR": 0.0659896,
    "ScanOptions": "FS",
    "ScanningSequence": "EP",
    "SequenceName": "epfid2d1_104",
    "SequenceVariant": "SK_SS",
    "SeriesDescription": "cmrr_mbepi_s6_2mm_66sl_PA_task-prf",
    "SeriesNumber": 8,
    "ShimSetting": [
      262,
      -12582,
      -8514,
      379,
      -25,
      -53,
      -164,
      -38
    ],
    "SliceThickness": 2,
    "SliceTiming": [
      0,
      0.535,
      0.09,
      0.625,
      0.18,
      0.7125,
      0.2675,
      0.8025,
      0.3575,
      0.8925,
      0.445,
      0,
      0.535,
      0.09,
      0.625,
      0.18,
      0.7125,
      0.2675,
      0.8025,
      0.3575,
      0.8925,
      0.445,
      0,
      0.535,
      0.09,
      0.625,
      0.18,
      0.7125,
      0.2675,
      0.8025,
      0.3575,
      0.8925,
      0.445,
      0,
      0.535,
      0.09,
      0.625,
      0.18,
      0.7125,
      0.2675,
      0.8025,
      0.3575,
      0.8925,
      0.445,
      0,
      0.535,
      0.09,
      0.625,
      0.18,
      0.7125,
      0.2675,
      0.8025,
      0.3575,
      0.8925,
      0.445,
      0,
      0.535,
      0.09,
      0.625,
      0.18,
      0.7125,
      0.2675,
      0.8025,
      0.3575,
      0.8925,
      0.445
    ],
    "SoftwareVersions": "syngo_MR_E11",
    "SpacingBetweenSlices": 2,
    "StationName": "AWP166018",
    "TaskName": "prf",
    "TotalReadoutTime": 0.0597409,
    "TxRefAmp": 206.91,
    "WipMemBlock": "5f601d3f-fd93-4234-bd99-0a25e800d504||Sequence: R016 ve11c/master r/8780670; Nov 27 2017 15:05:12 by eja",
    "acq_id": "PA",
    "dataset": "unknown",
    "dcmmeta_affine": [
      [
        -1.9931830167770386,
        0.16421976685523987,
        -0.015919066965579987,
        100.75301361083984
      ],
      [
        0.16232380270957947,
        1.9172815084457397,
        -0.5456027388572693,
        -80.44873809814453
      ],
      [
        0.0295387152582407,
        0.5450351238250732,
        1.9240748882293701,
        -83.58612823486328
      ],
      [
        0.0,
        0.0,
        0.0,
        1.0
      ]
    ],
    "dcmmeta_reorient_transform": [
      [
        0.0,
        -1.0,
        0.0,
        103.0
      ],
      [
        1.0,
        0.0,
        0.0,
        0.0
      ],
      [
        0.0,
        0.0,
        1.0,
        0.0
      ],
      [
        0.0,
        0.0,
        0.0,
        1.0
      ]
    ],
    "dcmmeta_shape": [
      104,
      104,
      66,
      192
    ],
    "dcmmeta_slice_dim": 2,
    "dcmmeta_version": 0.6,
    "global": {
      "const": {
        "AccessionNumber": "k2kz32c1",
        "AcquisitionMatrix": [
          104,
          0,
          0,
          104
        ],
        "AngioFlag": "N",
        "BitsAllocated": 16,
        "BitsStored": 16,
        "BodyPartExamined": "BRAIN",
        "Columns": 936,
        "EchoNumbers": 1,
        "EchoTime": 37.0,
        "EchoTrainLength": 104,
        "FlipAngle": 68.0,
        "HighBit": 15,
        "ImageOrientationPatient": [
          0.99659149725154,
          -0.0811618979714,
          0.01476935759001,
          0.08210988634513,
          0.95864078255469,
          -0.2725175528059
        ],
        "ImagePositionPatient": [
          -1015.1472015933,
          -847.09369826551,
          186.99898430608
        ],
        "ImageType": [
          "ORIGINAL",
          "PRIMARY",
          "M",
          "MB",
          "ND",
          "MOSAIC"
        ],
        "ImagedNucleus": "1H",
        "ImagingFrequency": 123.190774,
        "InPlanePhaseEncodingDirection": "COL",
        "MRAcquisitionType": "2D",
        "MagneticFieldStrength": 3.0,
        "Manufacturer": "SIEMENS",
        "ManufacturerModelName": "Prisma",
        "Modality": "MR",
        "NumberOfAverages": 1.0,
        "NumberOfPhaseEncodingSteps": 104,
        "PercentPhaseFieldOfView": 100.0,
        "PercentSampling": 100.0,
        "PerformedProcedureStepStartTime": "151949.263000",
        "PhotometricInterpretation": "MONOCHROME2",
        "PixelBandwidth": 2290.0,
        "PixelRepresentation": 0,
        "PixelSpacing": [
          2.0,
          2.0
        ],
        "ProtocolName": "cmrr_mbepi_s6_2mm_66sl_PA_task-prf",
        "RepetitionTime": 1000.0,
        "Rows": 936,
        "SAR": 0.06598964562719,
        "SamplesPerPixel": 1,
        "ScanOptions": "FS",
        "ScanningSequence": "EP",
        "SequenceName": "epfid2d1_104",
        "SequenceVariant": [
          "SK",
          "SS"
        ],
        "SeriesDescription": "cmrr_mbepi_s6_2mm_66sl_PA_task-prf",
        "SeriesNumber": 8,
        "SeriesTime": "153504.395000",
        "SliceLocation": -59.268407666219,
        "SliceThickness": 2.0,
        "SmallestImagePixelValue": 0,
        "SoftwareVersions": "syngo MR E11",
        "SpacingBetweenSlices": 1.9999999545538,
        "SpecificCharacterSet": "ISO_IR 100",
        "StudyID": "1",
        "StudyTime": "151949.103000",
        "TransmitCoilName": "Body",
        "VariableFlipAngleFlag": "N",
        "WindowCenterWidthExplanation": "Algo1",
        "dBdt": 0.0
      },
      "slices": {}
    },
    "modality": "bold",
    "run_id": 1,
    "session_id": "nyu3t01",
    "subject_id": "wlsubj109",
    "task_id": "prf",
    "time": {
      "samples": {
        "AcquisitionNumber": [
          1,
          2,
          3,
          4,
          5,
          6,
          7,
          8,
          9,
          10,
          11,
          12,
          13,
          14,
          15,
          16,
          17,
          18,
          19,
          20,
          21,
          22,
          23,
          24,
          25,
          26,
          27,
          28,
          29,
          30,
          31,
          32,
          33,
          34,
          35,
          36,
          37,
          38,
          39,
          40,
          41,
          42,
          43,
          44,
          45,
          46,
          47,
          48,
          49,
          50,
          51,
          52,
          53,
          54,
          55,
          56,
          57,
          58,
          59,
          60,
          61,
          62,
          63,
          64,
          65,
          66,
          67,
          68,
          69,
          70,
          71,
          72,
          73,
          74,
          75,
          76,
          77,
          78,
          79,
          80,
          81,
          82,
          83,
          84,
          85,
          86,
          87,
          88,
          89,
          90,
          91,
          92,
          93,
          94,
          95,
          96,
          97,
          98,
          99,
          100,
          101,
          102,
          103,
          104,
          105,
          106,
          107,
          108,
          109,
          110,
          111,
          112,
          113,
          114,
          115,
          116,
          117,
          118,
          119,
          120,
          121,
          122,
          123,
          124,
          125,
          126,
          127,
          128,
          129,
          130,
          131,
          132,
          133,
          134,
          135,
          136,
          137,
          138,
          139,
          140,
          141,
          142,
          143,
          144,
          145,
          146,
          147,
          148,
          149,
          150,
          151,
          152,
          153,
          154,
          155,
          156,
          157,
          158,
          159,
          160,
          161,
          162,
          163,
          164,
          165,
          166,
          167,
          168,
          169,
          170,
          171,
          172,
          173,
          174,
          175,
          176,
          177,
          178,
          179,
          180,
          181,
          182,
          183,
          184,
          185,
          186,
          187,
          188,
          189,
          190,
          191,
          192
        ],
        "AcquisitionTime": [
          "153352.437500",
          "153353.437500",
          "153354.437500",
          "153355.437500",
          "153356.437500",
          "153357.437500",
          "153358.437500",
          "153359.437500",
          "153400.437500",
          "153401.437500",
          "153402.437500",
          "153403.437500",
          "153404.437500",
          "153405.437500",
          "153406.437500",
          "153407.437500",
          "153408.437500",
          "153409.437500",
          "153410.437500",
          "153411.437500",
          "153412.437500",
          "153413.437500",
          "153414.437500",
          "153415.437500",
          "153416.437500",
          "153417.437500",
          "153418.437500",
          "153419.437500",
          "153420.437500",
          "153421.437500",
          "153422.437500",
          "153423.437500",
          "153424.437500",
          "153425.437500",
          "153426.437500",
          "153427.437500",
          "153428.437500",
          "153429.437500",
          "153430.437500",
          "153431.437500",
          "153432.437500",
          "153433.437500",
          "153434.437500",
          "153435.437500",
          "153436.437500",
          "153437.437500",
          "153438.437500",
          "153439.437500",
          "153440.437500",
          "153441.437500",
          "153442.437500",
          "153443.437500",
          "153444.437500",
          "153445.437500",
          "153446.437500",
          "153447.437500",
          "153448.437500",
          "153449.437500",
          "153450.437500",
          "153451.437500",
          "153452.437500",
          "153453.437500",
          "153454.437500",
          "153455.437500",
          "153456.437500",
          "153457.437500",
          "153458.437500",
          "153459.437500",
          "153500.437500",
          "153501.437500",
          "153502.437500",
          "153503.437500",
          "153504.437500",
          "153505.437500",
          "153506.437500",
          "153507.437500",
          "153508.437500",
          "153509.437500",
          "153510.437500",
          "153511.437500",
          "153512.437500",
          "153513.437500",
          "153514.437500",
          "153515.437500",
          "153516.437500",
          "153517.437500",
          "153518.437500",
          "153519.437500",
          "153520.437500",
          "153521.437500",
          "153522.437500",
          "153523.437500",
          "153524.437500",
          "153525.437500",
          "153526.437500",
          "153527.437500",
          "153528.437500",
          "153529.437500",
          "153530.437500",
          "153531.437500",
          "153532.437500",
          "153533.437500",
          "153534.437500",
          "153535.437500",
          "153536.437500",
          "153537.437500",
          "153538.437500",
          "153539.437500",
          "153540.437500",
          "153541.437500",
          "153542.437500",
          "153543.437500",
          "153544.437500",
          "153545.437500",
          "153546.437500",
          "153547.437500",
          "153548.437500",
          "153549.437500",
          "153550.437500",
          "153551.437500",
          "153552.437500",
          "153553.437500",
          "153554.437500",
          "153555.437500",
          "153556.437500",
          "153557.437500",
          "153558.437500",
          "153559.437500",
          "153600.437500",
          "153601.437500",
          "153602.437500",
          "153603.437500",
          "153604.437500",
          "153605.437500",
          "153606.437500",
          "153607.437500",
          "153608.437500",
          "153609.437500",
          "153610.437500",
          "153611.437500",
          "153612.437500",
          "153613.437500",
          "153614.437500",
          "153615.437500",
          "153616.437500",
          "153617.437500",
          "153618.437500",
          "153619.437500",
          "153620.437500",
          "153621.437500",
          "153622.437500",
          "153623.437500",
          "153624.437500",
          "153625.437500",
          "153626.437500",
          "153627.437500",
          "153628.437500",
          "153629.437500",
          "153630.437500",
          "153631.437500",
          "153632.437500",
          "153633.437500",
          "153634.437500",
          "153635.437500",
          "153636.437500",
          "153637.437500",
          "153638.437500",
          "153639.437500",
          "153640.437500",
          "153641.437500",
          "153642.437500",
          "153643.437500",
          "153644.437500",
          "153645.437500",
          "153646.437500",
          "153647.437500",
          "153648.437500",
          "153649.437500",
          "153650.437500",
          "153651.437500",
          "153652.437500",
          "153653.437500",
          "153654.437500",
          "153655.437500",
          "153656.437500",
          "153657.437500",
          "153658.437500",
          "153659.437500",
          "153700.437500",
          "153701.437500",
          "153702.437500",
          "153703.437500"
        ],
        "ContentTime": [
          "153504.398000",
          "153504.401000",
          "153504.404000",
          "153504.407000",
          "153504.410000",
          "153504.413000",
          "153504.418000",
          "153504.422000",
          "153504.425000",
          "153504.428000",
          "153504.431000",
          "153504.434000",
          "153504.437000",
          "153504.440000",
          "153504.443000",
          "153504.446000",
          "153504.449000",
          "153504.452000",
          "153504.455000",
          "153504.458000",
          "153504.461000",
          "153504.464000",
          "153504.467000",
          "153504.477000",
          "153504.480000",
          "153504.483000",
          "153504.486000",
          "153504.489000",
          "153504.497000",
          "153504.501000",
          "153524.355000",
          "153524.358000",
          "153524.362000",
          "153524.365000",
          "153524.368000",
          "153524.371000",
          "153524.374000",
          "153524.377000",
          "153524.380000",
          "153524.383000",
          "153524.386000",
          "153524.389000",
          "153524.392000",
          "153524.395000",
          "153524.398000",
          "153524.401000",
          "153524.404000",
          "153524.407000",
          "153524.410000",
          "153524.413000",
          "153524.424000",
          "153524.427000",
          "153524.430000",
          "153524.433000",
          "153524.436000",
          "153524.439000",
          "153524.442000",
          "153524.445000",
          "153544.356000",
          "153544.359000",
          "153544.362000",
          "153544.365000",
          "153544.368000",
          "153544.371000",
          "153544.374000",
          "153544.377000",
          "153544.380000",
          "153544.383000",
          "153544.386000",
          "153544.389000",
          "153544.392000",
          "153544.395000",
          "153544.398000",
          "153544.402000",
          "153544.405000",
          "153544.415000",
          "153544.419000",
          "153544.423000",
          "153544.426000",
          "153544.429000",
          "153544.432000",
          "153544.435000",
          "153544.438000",
          "153544.441000",
          "153544.461000",
          "153544.464000",
          "153604.355000",
          "153604.358000",
          "153604.361000",
          "153604.365000",
          "153604.368000",
          "153604.371000",
          "153604.374000",
          "153604.377000",
          "153604.380000",
          "153604.383000",
          "153604.386000",
          "153604.389000",
          "153604.392000",
          "153604.395000",
          "153604.398000",
          "153604.403000",
          "153604.406000",
          "153604.409000",
          "153604.412000",
          "153604.415000",
          "153604.419000",
          "153604.423000",
          "153604.426000",
          "153604.429000",
          "153604.432000",
          "153604.435000",
          "153604.438000",
          "153604.441000",
          "153624.355000",
          "153624.358000",
          "153624.361000",
          "153624.369000",
          "153624.372000",
          "153624.375000",
          "153624.378000",
          "153624.381000",
          "153624.384000",
          "153624.387000",
          "153624.390000",
          "153624.393000",
          "153624.396000",
          "153624.399000",
          "153624.402000",
          "153624.405000",
          "153624.408000",
          "153624.411000",
          "153624.422000",
          "153624.425000",
          "153624.428000",
          "153624.431000",
          "153624.434000",
          "153624.437000",
          "153624.440000",
          "153624.443000",
          "153624.446000",
          "153624.449000",
          "153644.355000",
          "153644.358000",
          "153644.361000",
          "153644.364000",
          "153644.367000",
          "153644.370000",
          "153644.373000",
          "153644.377000",
          "153644.380000",
          "153644.383000",
          "153644.386000",
          "153644.389000",
          "153644.392000",
          "153644.394000",
          "153644.398000",
          "153644.401000",
          "153644.404000",
          "153644.407000",
          "153644.410000",
          "153644.413000",
          "153644.416000",
          "153644.420000",
          "153644.423000",
          "153644.433000",
          "153644.436000",
          "153644.439000",
          "153644.442000",
          "153644.445000",
          "153644.448000",
          "153704.355000",
          "153704.358000",
          "153704.361000",
          "153704.364000",
          "153704.367000",
          "153704.371000",
          "153704.374000",
          "153704.377000",
          "153704.380000",
          "153704.383000",
          "153704.386000",
          "153704.389000",
          "153704.392000",
          "153704.395000",
          "153704.398000",
          "153704.401000",
          "153704.404000",
          "153704.407000",
          "153704.410000",
          "153704.413000",
          "153704.611000"
        ],
        "InstanceCreationTime": [
          "153504.398000",
          "153504.401000",
          "153504.404000",
          "153504.407000",
          "153504.410000",
          "153504.413000",
          "153504.418000",
          "153504.422000",
          "153504.425000",
          "153504.428000",
          "153504.431000",
          "153504.434000",
          "153504.437000",
          "153504.440000",
          "153504.443000",
          "153504.446000",
          "153504.449000",
          "153504.452000",
          "153504.455000",
          "153504.458000",
          "153504.461000",
          "153504.464000",
          "153504.467000",
          "153504.477000",
          "153504.480000",
          "153504.483000",
          "153504.486000",
          "153504.489000",
          "153504.497000",
          "153504.501000",
          "153524.355000",
          "153524.358000",
          "153524.362000",
          "153524.365000",
          "153524.368000",
          "153524.371000",
          "153524.374000",
          "153524.377000",
          "153524.380000",
          "153524.383000",
          "153524.386000",
          "153524.389000",
          "153524.392000",
          "153524.395000",
          "153524.398000",
          "153524.401000",
          "153524.404000",
          "153524.407000",
          "153524.410000",
          "153524.413000",
          "153524.424000",
          "153524.427000",
          "153524.430000",
          "153524.433000",
          "153524.436000",
          "153524.439000",
          "153524.442000",
          "153524.445000",
          "153544.356000",
          "153544.359000",
          "153544.362000",
          "153544.365000",
          "153544.368000",
          "153544.371000",
          "153544.374000",
          "153544.377000",
          "153544.380000",
          "153544.383000",
          "153544.386000",
          "153544.389000",
          "153544.392000",
          "153544.395000",
          "153544.398000",
          "153544.402000",
          "153544.405000",
          "153544.415000",
          "153544.419000",
          "153544.423000",
          "153544.426000",
          "153544.429000",
          "153544.432000",
          "153544.435000",
          "153544.438000",
          "153544.441000",
          "153544.461000",
          "153544.464000",
          "153604.355000",
          "153604.358000",
          "153604.361000",
          "153604.365000",
          "153604.368000",
          "153604.371000",
          "153604.374000",
          "153604.377000",
          "153604.380000",
          "153604.383000",
          "153604.386000",
          "153604.389000",
          "153604.392000",
          "153604.395000",
          "153604.398000",
          "153604.403000",
          "153604.406000",
          "153604.409000",
          "153604.412000",
          "153604.415000",
          "153604.419000",
          "153604.423000",
          "153604.426000",
          "153604.429000",
          "153604.432000",
          "153604.435000",
          "153604.438000",
          "153604.441000",
          "153624.355000",
          "153624.358000",
          "153624.361000",
          "153624.369000",
          "153624.372000",
          "153624.375000",
          "153624.378000",
          "153624.381000",
          "153624.384000",
          "153624.387000",
          "153624.390000",
          "153624.393000",
          "153624.396000",
          "153624.399000",
          "153624.402000",
          "153624.405000",
          "153624.408000",
          "153624.411000",
          "153624.422000",
          "153624.425000",
          "153624.428000",
          "153624.431000",
          "153624.434000",
          "153624.437000",
          "153624.440000",
          "153624.443000",
          "153624.446000",
          "153624.449000",
          "153644.355000",
          "153644.358000",
          "153644.361000",
          "153644.364000",
          "153644.367000",
          "153644.370000",
          "153644.373000",
          "153644.377000",
          "153644.380000",
          "153644.383000",
          "153644.386000",
          "153644.389000",
          "153644.392000",
          "153644.394000",
          "153644.398000",
          "153644.401000",
          "153644.404000",
          "153644.407000",
          "153644.410000",
          "153644.413000",
          "153644.416000",
          "153644.420000",
          "153644.423000",
          "153644.433000",
          "153644.436000",
          "153644.439000",
          "153644.442000",
          "153644.445000",
          "153644.448000",
          "153704.355000",
          "153704.358000",
          "153704.361000",
          "153704.364000",
          "153704.367000",
          "153704.371000",
          "153704.374000",
          "153704.377000",
          "153704.380000",
          "153704.383000",
          "153704.386000",
          "153704.389000",
          "153704.392000",
          "153704.395000",
          "153704.398000",
          "153704.401000",
          "153704.404000",
          "153704.407000",
          "153704.410000",
          "153704.413000",
          "153704.611000"
        ],
        "InstanceNumber": [
          1,
          2,
          3,
          4,
          5,
          6,
          7,
          8,
          9,
          10,
          11,
          12,
          13,
          14,
          15,
          16,
          17,
          18,
          19,
          20,
          21,
          22,
          23,
          24,
          25,
          26,
          27,
          28,
          29,
          30,
          31,
          32,
          33,
          34,
          35,
          36,
          37,
          38,
          39,
          40,
          41,
          42,
          43,
          44,
          45,
          46,
          47,
          48,
          49,
          50,
          51,
          52,
          53,
          54,
          55,
          56,
          57,
          58,
          59,
          60,
          61,
          62,
          63,
          64,
          65,
          66,
          67,
          68,
          69,
          70,
          71,
          72,
          73,
          74,
          75,
          76,
          77,
          78,
          79,
          80,
          81,
          82,
          83,
          84,
          85,
          86,
          87,
          88,
          89,
          90,
          91,
          92,
          93,
          94,
          95,
          96,
          97,
          98,
          99,
          100,
          101,
          102,
          103,
          104,
          105,
          106,
          107,
          108,
          109,
          110,
          111,
          112,
          113,
          114,
          115,
          116,
          117,
          118,
          119,
          120,
          121,
          122,
          123,
          124,
          125,
          126,
          127,
          128,
          129,
          130,
          131,
          132,
          133,
          134,
          135,
          136,
          137,
          138,
          139,
          140,
          141,
          142,
          143,
          144,
          145,
          146,
          147,
          148,
          149,
          150,
          151,
          152,
          153,
          154,
          155,
          156,
          157,
          158,
          159,
          160,
          161,
          162,
          163,
          164,
          165,
          166,
          167,
          168,
          169,
          170,
          171,
          172,
          173,
          174,
          175,
          176,
          177,
          178,
          179,
          180,
          181,
          182,
          183,
          184,
          185,
          186,
          187,
          188,
          189,
          190,
          191,
          192
        ],
        "LargestImagePixelValue": [
          30628,
          30715,
          30692,
          30869,
          30651,
          30470,
          30678,
          30665,
          30745,
          31007,
          30591,
          30536,
          30862,
          30856,
          30895,
          30944,
          31061,
          31174,
          31122,
          31114,
          30857,
          30994,
          30649,
          30846,
          30931,
          30557,
          30542,
          30605,
          30460,
          30524,
          30533,
          30537,
          30873,
          31058,
          30821,
          30742,
          31214,
          30775,
          31212,
          31042,
          31345,
          31112,
          30864,
          31007,
          30887,
          30513,
          30801,
          30670,
          30621,
          30597,
          30671,
          30859,
          30834,
          30360,
          30757,
          30446,
          30911,
          30940,
          30887,
          30947,
          30821,
          30838,
          30879,
          30744,
          31012,
          30803,
          30878,
          30980,
          31206,
          30929,
          30948,
          31637,
          30841,
          31057,
          30537,
          30496,
          30611,
          30873,
          31641,
          30843,
          30831,
          30922,
          31022,
          30703,
