{
  "aor": 0.0006803664921465968,
  "aqi": 0.004154672303664921,
  "bids_meta": {
    "AcquisitionMatrixPE": 104,
    "AcquisitionNumber": 1,
    "AcquisitionTime": "15:27:50.440000",
    "BandwidthPerPixelPhaseEncode": 16.578,
    "BaseResolution": 104,
    "BodyPartExamined": "BRAIN",
    "CogAtlasID": "TODO",
    "ConsistencyInfo": "N4_VE11C_LATEST_20160120",
    "ConversionSoftware": "dcm2niix",
    "ConversionSoftwareVersion": "v1.0.20190902",
    "DerivedVendorReportedEchoSpacing": 0.000580009,
    "DeviceSerialNumber": "166018",
    "DwellTime": 2.1e-06,
    "EchoTime": 0.037,
    "EchoTrainLength": 104,
    "EffectiveEchoSpacing": 0.000580009,
    "FlipAngle": 68,
    "ImageComments": "Unaliased_MB6_PE3_LB",
    "ImageOrientationPatientDICOM": [
      0.999707,
      -0.00551688,
      0.0235628,
      0.00663041,
      0.998852,
      -0.0474446
    ],
    "ImageType": [
      "ORIGINAL",
      "PRIMARY",
      "M",
      "MB",
      "ND",
      "MOSAIC"
    ],
    "ImagingFrequency": 123.191,
    "InPlanePhaseEncodingDirectionDICOM": "COL",
    "InstitutionAddress": "Washington_Place_6_NYC_NYC_US_10003",
    "InstitutionName": "NYU_-_CBI",
    "InstitutionalDepartmentName": "Department",
    "MRAcquisitionType": "2D",
    "MagneticFieldStrength": 3,
    "Manufacturer": "Siemens",
    "ManufacturersModelName": "Prisma",
    "Modality": "MR",
    "MultibandAccelerationFactor": 6,
    "NumberOfVolumes": 192,
    "PartialFourier": 1,
    "PatientPosition": "HFS",
    "PercentPhaseFOV": 100,
    "PhaseEncodingDirection": "j",
    "PhaseEncodingSteps": 104,
    "PhaseResolution": 1,
    "PixelBandwidth": 2290,
    "ProcedureStepDescription": "Investigators_Winawer",
    "ProtocolName": "cmrr_mbepi_s6_2mm_66sl_PA_task-prf",
    "PulseSequenceDetails": "%CustomerSeq%_cmrr_mbep2d_bold",
    "ReceiveCoilActiveElements": "HC1-7",
    "ReceiveCoilName": "HeadNeck_64",
    "ReconMatrixPE": 104,
    "RepetitionTime": 1,
    "SAR": 0.0738207,
    "ScanOptions": "FS",
    "ScanningSequence": "EP",
    "SequenceName": "epfid2d1_104",
    "SequenceVariant": "SK_SS",
    "SeriesDescription": "cmrr_mbepi_s6_2mm_66sl_PA_task-prf",
    "SeriesNumber": 10,
    "ShimSetting": [
      276,
      -12624,
      -8444,
      403,
      20,
      -171,
      -12,
      32
    ],
    "SliceThickness": 2,
    "SliceTiming": [
      0,
      0.535,
      0.09,
      0.625,
      0.18,
      0.7125,
      0.2675,
      0.8025,
      0.3575,
      0.8925,
      0.445,
      0,
      0.535,
      0.09,
      0.625,
      0.18,
      0.7125,
      0.2675,
      0.8025,
      0.3575,
      0.8925,
      0.445,
      0,
      0.535,
      0.09,
      0.625,
      0.18,
      0.7125,
      0.2675,
      0.8025,
      0.3575,
      0.8925,
      0.445,
      0,
      0.535,
      0.09,
      0.625,
      0.18,
      0.7125,
      0.2675,
      0.8025,
      0.3575,
      0.8925,
      0.445,
      0,
      0.535,
      0.09,
      0.625,
      0.18,
      0.7125,
      0.2675,
      0.8025,
      0.3575,
      0.8925,
      0.445,
      0,
      0.535,
      0.09,
      0.625,
      0.18,
      0.7125,
      0.2675,
      0.8025,
      0.3575,
      0.8925,
      0.445
    ],
    "SoftwareVersions": "syngo_MR_E11",
    "SpacingBetweenSlices": 2,
    "StationName": "AWP166018",
    "TaskName": "prf",
    "TotalReadoutTime": 0.0597409,
    "TxRefAmp": 215.997,
    "WipMemBlock": "e2f44eaa-9a11-4098-a87d-105d6f6e5c3a||Sequence: R016 ve11c/master r/8780670; Nov 27 2017 15:05:12 by eja",
    "acq_id": "PA",
    "dataset": "unknown",
    "dcmmeta_affine": [
      [
        -1.999414324760437,
        0.013260826468467712,
        0.046548087149858475,
        107.22315216064453
      ],
      [
        0.011033750139176846,
        1.9977036714553833,
        -0.09517396986484528,
        -78.54827117919922
      ],
      [
        0.0471256822347641,
        0.09488929808139801,
        1.9971919059753418,
        -39.36430358886719
      ],
      [
        0.0,
        0.0,
        0.0,
        1.0
      ]
    ],
    "dcmmeta_reorient_transform": [
      [
        0.0,
        -1.0,
        0.0,
        103.0
      ],
      [
        1.0,
        0.0,
        0.0,
        0.0
      ],
      [
        0.0,
        0.0,
        1.0,
        0.0
      ],
      [
        0.0,
        0.0,
        0.0,
        1.0
      ]
    ],
    "dcmmeta_shape": [
      104,
      104,
      66,
      192
    ],
    "dcmmeta_slice_dim": 2,
    "dcmmeta_version": 0.6,
    "global": {
      "const": {
        "AccessionNumber": "k3symgqr",
        "AcquisitionMatrix": [
          104,
          0,
          0,
          104
        ],
        "AngioFlag": "N",
        "BitsAllocated": 16,
        "BitsStored": 16,
        "BodyPartExamined": "BRAIN",
        "Columns": 936,
        "EchoNumbers": 1,
        "EchoTime": 37.0,
        "EchoTrainLength": 104,
        "FlipAngle": 68.0,
        "HighBit": 15,
        "ImageOrientationPatient": [
          0.99970713539921,
          -0.0055168749925,
          0.02356284198106,
          0.00663041340148,
          0.99885186242049,
          -0.0474446472982
        ],
        "ImagePositionPatient": [
          -945.86185514515,
          -953.66992111165,
          -9.721043522725
        ],
        "ImageType": [
          "ORIGINAL",
          "PRIMARY",
          "M",
          "MB",
          "ND",
          "MOSAIC"
        ],
        "ImagedNucleus": "1H",
        "ImagingFrequency": 123.190744,
        "InPlanePhaseEncodingDirection": "COL",
        "MRAcquisitionType": "2D",
        "MagneticFieldStrength": 3.0,
        "Manufacturer": "SIEMENS",
        "ManufacturerModelName": "Prisma",
        "Modality": "MR",
        "NumberOfAverages": 1.0,
        "NumberOfPhaseEncodingSteps": 104,
        "PercentPhaseFieldOfView": 100.0,
        "PercentSampling": 100.0,
        "PerformedProcedureStepStartTime": "145701.224000",
        "PhotometricInterpretation": "MONOCHROME2",
        "PixelBandwidth": 2290.0,
        "PixelRepresentation": 0,
        "PixelSpacing": [
          2.0,
          2.0
        ],
        "ProtocolName": "cmrr_mbepi_s6_2mm_66sl_PA_task-prf",
        "RepetitionTime": 1000.0,
        "Rows": 936,
        "SAR": 0.07382071098763,
        "SamplesPerPixel": 1,
        "ScanOptions": "FS",
        "ScanningSequence": "EP",
        "SequenceName": "epfid2d1_104",
        "SequenceVariant": [
          "SK",
          "SS"
        ],
        "SeriesDescription": "cmrr_mbepi_s6_2mm_66sl_PA_task-prf",
        "SeriesNumber": 10,
        "SeriesTime": "152919.123000",
        "SliceLocation": -33.075640514039,
        "SliceThickness": 2.0,
        "SmallestImagePixelValue": 0,
        "SoftwareVersions": "syngo MR E11",
        "SpacingBetweenSlices": 2.0000000281142,
        "SpecificCharacterSet": "ISO_IR 100",
        "StudyID": "1",
        "StudyTime": "145701.175000",
        "TransmitCoilName": "Body",
        "VariableFlipAngleFlag": "N",
        "WindowCenterWidthExplanation": "Algo1",
        "dBdt": 0.0
      },
      "slices": {}
    },
    "modality": "bold",
    "run_id": 2,
    "session_id": "nyu3t01",
    "subject_id": "wlsubj046",
    "task_id": "prf",
    "time": {
      "samples": {
        "AcquisitionNumber": [
          1,
          2,
          3,
          4,
          5,
          6,
          7,
          8,
          9,
          10,
          11,
          12,
          13,
          14,
          15,
          16,
          17,
          18,
          19,
          20,
          21,
          22,
          23,
          24,
          25,
          26,
          27,
          28,
          29,
          30,
          31,
          32,
          33,
          34,
          35,
          36,
          37,
          38,
          39,
          40,
          41,
          42,
          43,
          44,
          45,
          46,
          47,
          48,
          49,
          50,
          51,
          52,
          53,
          54,
          55,
          56,
          57,
          58,
          59,
          60,
          61,
          62,
          63,
          64,
          65,
          66,
          67,
          68,
          69,
          70,
          71,
          72,
          73,
          74,
          75,
          76,
          77,
          78,
          79,
          80,
          81,
          82,
          83,
          84,
          85,
          86,
          87,
          88,
          89,
          90,
          91,
          92,
          93,
          94,
          95,
          96,
          97,
          98,
          99,
          100,
          101,
          102,
          103,
          104,
          105,
          106,
          107,
          108,
          109,
          110,
          111,
          112,
          113,
          114,
          115,
          116,
          117,
          118,
          119,
          120,
          121,
          122,
          123,
          124,
          125,
          126,
          127,
          128,
          129,
          130,
          131,
          132,
          133,
          134,
          135,
          136,
          137,
          138,
          139,
          140,
          141,
          142,
          143,
          144,
          145,
          146,
          147,
          148,
          149,
          150,
          151,
          152,
          153,
          154,
          155,
          156,
          157,
          158,
          159,
          160,
          161,
          162,
          163,
          164,
          165,
          166,
          167,
          168,
          169,
          170,
          171,
          172,
          173,
          174,
          175,
          176,
          177,
          178,
          179,
          180,
          181,
          182,
          183,
          184,
          185,
          186,
          187,
          188,
          189,
          190,
          191,
          192
        ],
        "AcquisitionTime": [
          "152750.440000",
          "152751.440000",
          "152752.440000",
          "152753.440000",
          "152754.440000",
          "152755.440000",
          "152756.440000",
          "152757.440000",
          "152758.440000",
          "152759.440000",
          "152800.440000",
          "152801.440000",
          "152802.440000",
          "152803.440000",
          "152804.440000",
          "152805.440000",
          "152806.440000",
          "152807.440000",
          "152808.440000",
          "152809.440000",
          "152810.440000",
          "152811.440000",
          "152812.440000",
          "152813.440000",
          "152814.440000",
          "152815.440000",
          "152816.440000",
          "152817.440000",
          "152818.440000",
          "152819.440000",
          "152820.440000",
          "152821.440000",
          "152822.440000",
          "152823.440000",
          "152824.440000",
          "152825.440000",
          "152826.440000",
          "152827.440000",
          "152828.440000",
          "152829.440000",
          "152830.440000",
          "152831.440000",
          "152832.440000",
          "152833.440000",
          "152834.440000",
          "152835.440000",
          "152836.440000",
          "152837.440000",
          "152838.440000",
          "152839.440000",
          "152840.440000",
          "152841.440000",
          "152842.440000",
          "152843.440000",
          "152844.440000",
          "152845.440000",
          "152846.440000",
          "152847.440000",
          "152848.440000",
          "152849.440000",
          "152850.440000",
          "152851.440000",
          "152852.440000",
          "152853.440000",
          "152854.440000",
          "152855.440000",
          "152856.440000",
          "152857.440000",
          "152858.440000",
          "152859.440000",
          "152900.440000",
          "152901.440000",
          "152902.440000",
          "152903.440000",
          "152904.440000",
          "152905.440000",
          "152906.440000",
          "152907.440000",
          "152908.440000",
          "152909.440000",
          "152910.440000",
          "152911.440000",
          "152912.440000",
          "152913.440000",
          "152914.440000",
          "152915.440000",
          "152916.440000",
          "152917.440000",
          "152918.440000",
          "152919.440000",
          "152920.440000",
          "152921.440000",
          "152922.440000",
          "152923.440000",
          "152924.440000",
          "152925.440000",
          "152926.440000",
          "152927.440000",
          "152928.440000",
          "152929.440000",
          "152930.440000",
          "152931.440000",
          "152932.440000",
          "152933.440000",
          "152934.440000",
          "152935.440000",
          "152936.440000",
          "152937.440000",
          "152938.440000",
          "152939.440000",
          "152940.440000",
          "152941.440000",
          "152942.440000",
          "152943.440000",
          "152944.440000",
          "152945.440000",
          "152946.440000",
          "152947.440000",
          "152948.440000",
          "152949.440000",
          "152950.440000",
          "152951.440000",
          "152952.440000",
          "152953.440000",
          "152954.440000",
          "152955.440000",
          "152956.440000",
          "152957.440000",
          "152958.440000",
          "152959.440000",
          "153000.440000",
          "153001.440000",
          "153002.440000",
          "153003.440000",
          "153004.440000",
          "153005.440000",
          "153006.440000",
          "153007.440000",
          "153008.440000",
          "153009.440000",
          "153010.440000",
          "153011.440000",
          "153012.440000",
          "153013.440000",
          "153014.440000",
          "153015.440000",
          "153016.440000",
          "153017.440000",
          "153018.440000",
          "153019.440000",
          "153020.440000",
          "153021.440000",
          "153022.440000",
          "153023.440000",
          "153024.440000",
          "153025.440000",
          "153026.440000",
          "153027.440000",
          "153028.440000",
          "153029.440000",
          "153030.440000",
          "153031.440000",
          "153032.440000",
          "153033.440000",
          "153034.440000",
          "153035.440000",
          "153036.440000",
          "153037.440000",
          "153038.440000",
          "153039.440000",
          "153040.440000",
          "153041.440000",
          "153042.440000",
          "153043.440000",
          "153044.440000",
          "153045.440000",
          "153046.440000",
          "153047.440000",
          "153048.440000",
          "153049.440000",
          "153050.440000",
          "153051.440000",
          "153052.440000",
          "153053.440000",
          "153054.440000",
          "153055.440000",
          "153056.440000",
          "153057.440000",
          "153058.440000",
          "153059.440000",
          "153100.440000",
          "153101.440000"
        ],
        "ContentTime": [
          "152919.126000",
          "152919.129000",
          "152919.132000",
          "152919.135000",
          "152919.138000",
          "152919.141000",
          "152919.144000",
          "152919.147000",
          "152919.150000",
          "152919.152000",
          "152919.155000",
          "152919.168000",
          "152919.171000",
          "152919.174000",
          "152919.177000",
          "152919.180000",
          "152919.182000",
          "152919.185000",
          "152919.188000",
          "152919.191000",
          "152919.194000",
          "152919.197000",
          "152919.200000",
          "152919.203000",
          "152919.206000",
          "152919.209000",
          "152919.212000",
          "152919.215000",
          "152919.217000",
          "152919.220000",
          "152919.223000",
          "152919.226000",
          "152919.229000",
          "152919.232000",
          "152919.235000",
          "152919.238000",
          "152919.241000",
          "152919.244000",
          "152919.247000",
          "152919.250000",
          "152919.252000",
          "152919.255000",
          "152919.258000",
          "152919.261000",
          "152919.264000",
          "152919.267000",
          "152919.270000",
          "152919.273000",
          "152939.095000",
          "152939.098000",
          "152939.101000",
          "152939.104000",
          "152939.108000",
          "152939.111000",
          "152939.114000",
          "152939.117000",
          "152939.120000",
          "152939.122000",
          "152939.125000",
          "152939.128000",
          "152939.131000",
          "152939.134000",
          "152939.137000",
          "152939.140000",
          "152939.143000",
          "152939.146000",
          "152939.149000",
          "152939.151000",
          "152939.154000",
          "152939.157000",
          "152939.160000",
          "152939.163000",
          "152939.166000",
          "152939.169000",
          "152939.172000",
          "152939.175000",
          "152959.095000",
          "152959.098000",
          "152959.101000",
          "152959.104000",
          "152959.108000",
          "152959.111000",
          "152959.114000",
          "152959.117000",
          "152959.120000",
          "152959.123000",
          "152959.126000",
          "152959.129000",
          "152959.131000",
          "152959.134000",
          "152959.137000",
          "152959.140000",
          "152959.143000",
          "152959.146000",
          "152959.149000",
          "152959.152000",
          "152959.155000",
          "152959.158000",
          "152959.161000",
          "152959.164000",
          "152959.167000",
          "152959.170000",
          "152959.172000",
          "152959.175000",
          "153019.095000",
          "153019.098000",
          "153019.101000",
          "153019.104000",
          "153019.108000",
          "153019.111000",
          "153019.114000",
          "153019.130000",
          "153019.133000",
          "153019.136000",
          "153019.139000",
          "153019.142000",
          "153019.145000",
          "153019.148000",
          "153019.151000",
          "153019.154000",
          "153019.157000",
          "153019.160000",
          "153019.163000",
          "153019.166000",
          "153019.168000",
          "153019.171000",
          "153019.174000",
          "153019.177000",
          "153019.180000",
          "153019.183000",
          "153019.186000",
          "153019.189000",
          "153019.192000",
          "153039.095000",
          "153039.098000",
          "153039.101000",
          "153039.104000",
          "153039.108000",
          "153039.111000",
          "153039.114000",
          "153039.117000",
          "153039.120000",
          "153039.123000",
          "153039.125000",
          "153039.128000",
          "153039.131000",
          "153039.134000",
          "153039.137000",
          "153039.140000",
          "153039.143000",
          "153039.146000",
          "153039.149000",
          "153039.152000",
          "153039.154000",
          "153039.157000",
          "153039.161000",
          "153039.164000",
          "153039.167000",
          "153039.170000",
          "153039.172000",
          "153039.175000",
          "153059.095000",
          "153059.098000",
          "153059.101000",
          "153059.104000",
          "153059.108000",
          "153059.111000",
          "153059.114000",
          "153059.117000",
          "153059.120000",
          "153059.123000",
          "153059.126000",
          "153059.129000",
          "153059.132000",
          "153059.135000",
          "153059.138000",
          "153059.141000",
          "153059.143000",
          "153059.146000",
          "153059.149000",
          "153059.152000",
          "153059.155000",
          "153059.158000",
          "153059.161000",
          "153059.164000",
          "153059.167000",
          "153059.170000",
          "153103.294000",
          "153103.297000",
          "153103.300000",
          "153103.303000",
          "153103.306000"
        ],
        "InstanceCreationTime": [
          "152919.126000",
          "152919.129000",
          "152919.132000",
          "152919.135000",
          "152919.138000",
          "152919.141000",
          "152919.144000",
          "152919.147000",
          "152919.150000",
          "152919.152000",
          "152919.155000",
          "152919.168000",
          "152919.171000",
          "152919.174000",
          "152919.177000",
          "152919.180000",
          "152919.182000",
          "152919.185000",
          "152919.188000",
          "152919.191000",
          "152919.194000",
          "152919.197000",
          "152919.200000",
          "152919.203000",
          "152919.206000",
          "152919.209000",
          "152919.212000",
          "152919.215000",
          "152919.217000",
          "152919.220000",
          "152919.223000",
          "152919.226000",
          "152919.229000",
          "152919.232000",
          "152919.235000",
          "152919.238000",
          "152919.241000",
          "152919.244000",
          "152919.247000",
          "152919.250000",
          "152919.252000",
          "152919.255000",
          "152919.258000",
          "152919.261000",
          "152919.264000",
          "152919.267000",
          "152919.270000",
          "152919.273000",
          "152939.095000",
          "152939.098000",
          "152939.101000",
          "152939.104000",
          "152939.108000",
          "152939.111000",
          "152939.114000",
          "152939.117000",
          "152939.120000",
          "152939.122000",
          "152939.125000",
          "152939.128000",
          "152939.131000",
          "152939.134000",
          "152939.137000",
          "152939.140000",
          "152939.143000",
          "152939.146000",
          "152939.149000",
          "152939.151000",
          "152939.154000",
          "152939.157000",
          "152939.160000",
          "152939.163000",
          "152939.166000",
          "152939.169000",
          "152939.172000",
          "152939.175000",
          "152959.095000",
          "152959.098000",
          "152959.101000",
          "152959.104000",
          "152959.108000",
          "152959.111000",
          "152959.114000",
          "152959.117000",
          "152959.120000",
          "152959.123000",
          "152959.126000",
          "152959.129000",
          "152959.131000",
          "152959.134000",
          "152959.137000",
          "152959.140000",
          "152959.143000",
          "152959.146000",
          "152959.149000",
          "152959.152000",
          "152959.155000",
          "152959.158000",
          "152959.161000",
          "152959.164000",
          "152959.167000",
          "152959.170000",
          "152959.172000",
          "152959.175000",
          "153019.095000",
          "153019.098000",
          "153019.101000",
          "153019.104000",
          "153019.108000",
          "153019.111000",
          "153019.114000",
          "153019.130000",
          "153019.133000",
          "153019.136000",
          "153019.139000",
          "153019.142000",
          "153019.145000",
          "153019.148000",
          "153019.151000",
          "153019.154000",
          "153019.157000",
          "153019.160000",
          "153019.163000",
          "153019.166000",
          "153019.168000",
          "153019.171000",
          "153019.174000",
          "153019.177000",
          "153019.180000",
          "153019.183000",
          "153019.186000",
          "153019.189000",
          "153019.192000",
          "153039.095000",
          "153039.098000",
          "153039.101000",
          "153039.104000",
          "153039.108000",
          "153039.111000",
          "153039.114000",
          "153039.117000",
          "153039.120000",
          "153039.123000",
          "153039.125000",
          "153039.128000",
          "153039.131000",
          "153039.134000",
          "153039.137000",
          "153039.140000",
          "153039.143000",
          "153039.146000",
          "153039.149000",
          "153039.152000",
          "153039.154000",
          "153039.157000",
          "153039.161000",
          "153039.164000",
          "153039.167000",
          "153039.170000",
          "153039.172000",
          "153039.175000",
          "153059.095000",
          "153059.098000",
          "153059.101000",
          "153059.104000",
          "153059.108000",
          "153059.111000",
          "153059.114000",
          "153059.117000",
          "153059.120000",
          "153059.123000",
          "153059.126000",
          "153059.129000",
          "153059.132000",
          "153059.135000",
          "153059.138000",
          "153059.141000",
          "153059.143000",
          "153059.146000",
          "153059.149000",
          "153059.152000",
          "153059.155000",
          "153059.158000",
          "153059.161000",
          "153059.164000",
          "153059.167000",
          "153059.170000",
          "153103.294000",
          "153103.297000",
          "153103.300000",
          "153103.303000",
          "153103.306000"
        ],
        "InstanceNumber": [
          1,
          2,
          3,
          4,
          5,
          6,
          7,
          8,
          9,
          10,
          11,
          12,
          13,
          14,
          15,
          16,
          17,
          18,
          19,
          20,
          21,
          22,
          23,
          24,
          25,
          26,
          27,
          28,
          29,
          30,
          31,
          32,
          33,
          34,
          35,
          36,
          37,
          38,
          39,
          40,
          41,
          42,
          43,
          44,
          45,
          46,
          47,
          48,
          49,
          50,
          51,
          52,
          53,
          54,
          55,
          56,
          57,
          58,
          59,
          60,
          61,
          62,
          63,
          64,
          65,
          66,
          67,
          68,
          69,
          70,
          71,
          72,
          73,
          74,
          75,
          76,
          77,
          78,
          79,
          80,
          81,
          82,
          83,
          84,
          85,
          86,
          87,
          88,
          89,
          90,
          91,
          92,
          93,
          94,
          95,
          96,
          97,
          98,
          99,
          100,
          101,
          102,
          103,
          104,
          105,
          106,
          107,
          108,
          109,
          110,
          111,
          112,
          113,
          114,
          115,
          116,
          117,
          118,
          119,
          120,
          121,
          122,
          123,
          124,
          125,
          126,
          127,
          128,
          129,
          130,
          131,
          132,
          133,
          134,
          135,
          136,
          137,
          138,
          139,
          140,
          141,
          142,
          143,
          144,
          145,
          146,
          147,
          148,
          149,
          150,
          151,
          152,
          153,
          154,
          155,
          156,
          157,
          158,
          159,
          160,
          161,
          162,
          163,
          164,
          165,
          166,
          167,
          168,
          169,
          170,
          171,
          172,
          173,
          174,
          175,
          176,
          177,
          178,
          179,
          180,
          181,
          182,
          183,
          184,
          185,
          186,
          187,
          188,
          189,
          190,
          191,
          192
        ],
        "LargestImagePixelValue": [
          45736,
          44775,
          43945,
          43320,
          43358,
          43201,
          43044,
          42320,
          43160,
          42727,
          42624,
          42493,
          42078,
          42453,
          43054,
          43228,
          42637,
          42894,
          42430,
          43066,
          42752,
          42490,
          42633,
          42850,
          42934,
          43004,
          42596,
          42460,
          42710,
          42353,
          41970,
          42443,
          41879,
          41991,
          42386,
          42155,
          41947,
          42293,
          42689,
          42486,
          42295,
          42783,
          42576,
          42385,
          42749,
          42837,
          42958,
          42396,
          42448,
          42568,
          42611,
          42903,
          42454,
          42530,
          42785,
          42429,
          42227,
          42347,
          42257,
          41697,
          42201,
          42397,
          42379,
          43141,
          42745,
          43170,
          42383,
          41891,
          41969,
          41999,
          41876,
          41811,
          42225,
          42662,
          42653,
          42489,
          42549,
          42134,
          42014,
          41850,
          42419,
          41750,
          42042,
