{
  "aor": 0.00055640625,
  "aqi": 0.0054851301562499994,
  "bids_meta": {
    "AcquisitionMatrixPE": 104,
    "AcquisitionNumber": 1,
    "AcquisitionTime": "09:21:27.567500",
    "BandwidthPerPixelPhaseEncode": 16.578,
    "BaseResolution": 104,
    "BodyPartExamined": "BRAIN",
    "CogAtlasID": "TODO",
    "ConsistencyInfo": "N4_VE11C_LATEST_20160120",
    "ConversionSoftware": "dcm2niix",
    "ConversionSoftwareVersion": "v1.0.20190902",
    "DerivedVendorReportedEchoSpacing": 0.000580009,
    "DeviceSerialNumber": "166018",
    "DwellTime": 2.1e-06,
    "EchoTime": 0.037,
    "EchoTrainLength": 104,
    "EffectiveEchoSpacing": 0.000580009,
    "FlipAngle": 68,
    "ImageComments": "Unaliased_MB6_PE3_LB",
    "ImageOrientationPatientDICOM": [
      0.997174,
      0.0683814,
      -0.0311172,
      -0.0727029,
      0.982713,
      -0.170265
    ],
    "ImageType": [
      "ORIGINAL",
      "PRIMARY",
      "M",
      "MB",
      "ND",
      "MOSAIC"
    ],
    "ImagingFrequency": 123.191,
    "InPlanePhaseEncodingDirectionDICOM": "COL",
    "InstitutionAddress": "Washington_Place_6_NYC_NYC_US_10003",
    "InstitutionName": "NYU_-_CBI",
    "InstitutionalDepartmentName": "Department",
    "MRAcquisitionType": "2D",
    "MagneticFieldStrength": 3,
    "Manufacturer": "Siemens",
    "ManufacturersModelName": "Prisma",
    "Modality": "MR",
    "MultibandAccelerationFactor": 6,
    "NumberOfVolumes": 192,
    "PartialFourier": 1,
    "PatientPosition": "HFS",
    "PercentPhaseFOV": 100,
    "PhaseEncodingDirection": "j",
    "PhaseEncodingSteps": 104,
    "PhaseResolution": 1,
    "PixelBandwidth": 2290,
    "ProcedureStepDescription": "Investigators_Winawer",
    "ProtocolName": "cmrr_mbepi_s6_2mm_66sl_PA_task-prf",
    "PulseSequenceDetails": "%CustomerSeq%_cmrr_mbep2d_bold",
    "ReceiveCoilActiveElements": "HC1-7",
    "ReceiveCoilName": "HeadNeck_64",
    "ReconMatrixPE": 104,
    "RepetitionTime": 1,
    "SAR": 0.0743118,
    "ScanOptions": "FS",
    "ScanningSequence": "EP",
    "SequenceName": "epfid2d1_104",
    "SequenceVariant": "SK_SS",
    "SeriesDescription": "cmrr_mbepi_s6_2mm_66sl_PA_task-prf",
    "SeriesNumber": 8,
    "ShimSetting": [
      239,
      -12590,
      -8441,
      448,
      -86,
      -143,
      -23,
      47
    ],
    "SliceThickness": 2,
    "SliceTiming": [
      0,
      0.535,
      0.09,
      0.625,
      0.1775,
      0.7125,
      0.2675,
      0.8025,
      0.3575,
      0.8925,
      0.445,
      0,
      0.535,
      0.09,
      0.625,
      0.1775,
      0.7125,
      0.2675,
      0.8025,
      0.3575,
      0.8925,
      0.445,
      0,
      0.535,
      0.09,
      0.625,
      0.1775,
      0.7125,
      0.2675,
      0.8025,
      0.3575,
      0.8925,
      0.445,
      0,
      0.535,
      0.09,
      0.625,
      0.1775,
      0.7125,
      0.2675,
      0.8025,
      0.3575,
      0.8925,
      0.445,
      0,
      0.535,
      0.09,
      0.625,
      0.1775,
      0.7125,
      0.2675,
      0.8025,
      0.3575,
      0.8925,
      0.445,
      0,
      0.535,
      0.09,
      0.625,
      0.1775,
      0.7125,
      0.2675,
      0.8025,
      0.3575,
      0.8925,
      0.445
    ],
    "SoftwareVersions": "syngo_MR_E11",
    "SpacingBetweenSlices": 2,
    "StationName": "AWP166018",
    "TaskName": "prf",
    "TotalReadoutTime": 0.0597409,
    "TxRefAmp": 227.081,
    "WipMemBlock": "4342feed-4587-4f7f-b07e-e251853eec8b||Sequence: R016 ve11c/master r/8780670; Nov 27 2017 15:05:12 by eja",
    "acq_id": "PA",
    "dataset": "unknown",
    "dcmmeta_affine": [
      [
        -1.9943476915359497,
        -0.1454058289527893,
        -0.037872642278671265,
        115.68653869628906
      ],
      [
        -0.1367628127336502,
        1.9654252529144287,
        -0.3440922498703003,
        -69.1511001586914
      ],
      [
        -0.06223443150520325,
        0.34053000807762146,
        1.9698138236999512,
        -57.85879135131836
      ],
      [
        0.0,
        0.0,
        0.0,
        1.0
      ]
    ],
    "dcmmeta_reorient_transform": [
      [
        0.0,
        -1.0,
        0.0,
        103.0
      ],
      [
        1.0,
        0.0,
        0.0,
        0.0
      ],
      [
        0.0,
        0.0,
        1.0,
        0.0
      ],
      [
        0.0,
        0.0,
        0.0,
        1.0
      ]
    ],
    "dcmmeta_shape": [
      104,
      104,
      66,
      192
    ],
    "dcmmeta_slice_dim": 2,
    "dcmmeta_version": 0.6,
    "global": {
      "const": {
        "AccessionNumber": "jur4wd1m",
        "AcquisitionMatrix": [
          104,
          0,
          0,
          104
        ],
        "AngioFlag": "N",
        "BitsAllocated": 16,
        "BitsStored": 16,
        "BodyPartExamined": "BRAIN",
        "Columns": 936,
        "EchoNumbers": 1,
        "EchoTime": 37.0,
        "EchoTrainLength": 104,
        "FlipAngle": 68.0,
        "HighBit": 15,
        "ImageOrientationPatient": [
          0.99717385749444,
          0.06838140670034,
          -0.0311172162531,
          -0.0727029137918,
          0.9827126310668,
          -0.1702650024754
        ],
        "ImagePositionPatient": [
          -869.8695601759,
          -1007.7979439869,
          144.76580567999
        ],
        "ImageType": [
          "ORIGINAL",
          "PRIMARY",
          "M",
          "MB",
          "ND",
          "MOSAIC"
        ],
        "ImagedNucleus": "1H",
        "ImagingFrequency": 123.19105,
        "InPlanePhaseEncodingDirection": "COL",
        "MRAcquisitionType": "2D",
        "MagneticFieldStrength": 3.0,
        "Manufacturer": "SIEMENS",
        "ManufacturerModelName": "Prisma",
        "Modality": "MR",
        "NumberOfAverages": 1.0,
        "NumberOfPhaseEncodingSteps": 104,
        "PercentPhaseFieldOfView": 100.0,
        "PercentSampling": 100.0,
        "PerformedProcedureStepStartTime": "090429.769000",
        "PhotometricInterpretation": "MONOCHROME2",
        "PixelBandwidth": 2290.0,
        "PixelRepresentation": 0,
        "PixelSpacing": [
          2.0,
          2.0
        ],
        "ProtocolName": "cmrr_mbepi_s6_2mm_66sl_PA_task-prf",
        "RepetitionTime": 1000.0,
        "Rows": 936,
        "SAR": 0.07431180054154,
        "SamplesPerPixel": 1,
        "ScanOptions": "FS",
        "ScanningSequence": "EP",
        "SequenceName": "epfid2d1_104",
        "SequenceVariant": [
          "SK",
          "SS"
        ],
        "SeriesDescription": "cmrr_mbepi_s6_2mm_66sl_PA_task-prf",
        "SeriesNumber": 8,
        "SeriesTime": "092227.953000",
        "SliceLocation": -47.279019970817,
        "SliceThickness": 2.0,
        "SmallestImagePixelValue": 0,
        "SoftwareVersions": "syngo MR E11",
        "SpacingBetweenSlices": 2.0000000230754,
        "SpecificCharacterSet": "ISO_IR 100",
        "StudyID": "1",
        "StudyTime": "090429.665000",
        "TransmitCoilName": "Body",
        "VariableFlipAngleFlag": "N",
        "WindowCenterWidthExplanation": "Algo1",
        "dBdt": 0.0
      },
      "slices": {}
    },
    "modality": "bold",
    "run_id": 1,
    "session_id": "nyu3t01",
    "subject_id": "wlsubj085",
    "task_id": "prf",
    "time": {
      "samples": {
        "AcquisitionNumber": [
          1,
          2,
          3,
          4,
          5,
          6,
          7,
          8,
          9,
          10,
          11,
          12,
          13,
          14,
          15,
          16,
          17,
          18,
          19,
          20,
          21,
          22,
          23,
          24,
          25,
          26,
          27,
          28,
          29,
          30,
          31,
          32,
          33,
          34,
          35,
          36,
          37,
          38,
          39,
          40,
          41,
          42,
          43,
          44,
          45,
          46,
          47,
          48,
          49,
          50,
          51,
          52,
          53,
          54,
          55,
          56,
          57,
          58,
          59,
          60,
          61,
          62,
          63,
          64,
          65,
          66,
          67,
          68,
          69,
          70,
          71,
          72,
          73,
          74,
          75,
          76,
          77,
          78,
          79,
          80,
          81,
          82,
          83,
          84,
          85,
          86,
          87,
          88,
          89,
          90,
          91,
          92,
          93,
          94,
          95,
          96,
          97,
          98,
          99,
          100,
          101,
          102,
          103,
          104,
          105,
          106,
          107,
          108,
          109,
          110,
          111,
          112,
          113,
          114,
          115,
          116,
          117,
          118,
          119,
          120,
          121,
          122,
          123,
          124,
          125,
          126,
          127,
          128,
          129,
          130,
          131,
          132,
          133,
          134,
          135,
          136,
          137,
          138,
          139,
          140,
          141,
          142,
          143,
          144,
          145,
          146,
          147,
          148,
          149,
          150,
          151,
          152,
          153,
          154,
          155,
          156,
          157,
          158,
          159,
          160,
          161,
          162,
          163,
          164,
          165,
          166,
          167,
          168,
          169,
          170,
          171,
          172,
          173,
          174,
          175,
          176,
          177,
          178,
          179,
          180,
          181,
          182,
          183,
          184,
          185,
          186,
          187,
          188,
          189,
          190,
          191,
          192
        ],
        "AcquisitionTime": [
          "092127.567500",
          "092128.567500",
          "092129.567500",
          "092130.567500",
          "092131.567500",
          "092132.567500",
          "092133.567500",
          "092134.567500",
          "092135.567500",
          "092136.567500",
          "092137.567500",
          "092138.567500",
          "092139.567500",
          "092140.567500",
          "092141.567500",
          "092142.567500",
          "092143.567500",
          "092144.567500",
          "092145.567500",
          "092146.567500",
          "092147.567500",
          "092148.567500",
          "092149.567500",
          "092150.567500",
          "092151.567500",
          "092152.567500",
          "092153.567500",
          "092154.567500",
          "092155.567500",
          "092156.567500",
          "092157.567500",
          "092158.567500",
          "092159.567500",
          "092200.567500",
          "092201.567500",
          "092202.567500",
          "092203.567500",
          "092204.567500",
          "092205.567500",
          "092206.567500",
          "092207.567500",
          "092208.567500",
          "092209.567500",
          "092210.567500",
          "092211.567500",
          "092212.567500",
          "092213.567500",
          "092214.567500",
          "092215.567500",
          "092216.567500",
          "092217.567500",
          "092218.567500",
          "092219.567500",
          "092220.567500",
          "092221.567500",
          "092222.567500",
          "092223.567500",
          "092224.567500",
          "092225.567500",
          "092226.567500",
          "092227.567500",
          "092228.567500",
          "092229.567500",
          "092230.567500",
          "092231.567500",
          "092232.567500",
          "092233.567500",
          "092234.567500",
          "092235.567500",
          "092236.567500",
          "092237.567500",
          "092238.567500",
          "092239.567500",
          "092240.567500",
          "092241.567500",
          "092242.567500",
          "092243.567500",
          "092244.567500",
          "092245.567500",
          "092246.567500",
          "092247.567500",
          "092248.567500",
          "092249.567500",
          "092250.567500",
          "092251.567500",
          "092252.567500",
          "092253.567500",
          "092254.567500",
          "092255.567500",
          "092256.567500",
          "092257.567500",
          "092258.567500",
          "092259.567500",
          "092300.567500",
          "092301.567500",
          "092302.567500",
          "092303.567500",
          "092304.567500",
          "092305.567500",
          "092306.567500",
          "092307.567500",
          "092308.567500",
          "092309.567500",
          "092310.567500",
          "092311.567500",
          "092312.567500",
          "092313.567500",
          "092314.567500",
          "092315.567500",
          "092316.567500",
          "092317.567500",
          "092318.567500",
          "092319.567500",
          "092320.567500",
          "092321.567500",
          "092322.567500",
          "092323.567500",
          "092324.567500",
          "092325.567500",
          "092326.567500",
          "092327.567500",
          "092328.567500",
          "092329.567500",
          "092330.567500",
          "092331.567500",
          "092332.567500",
          "092333.567500",
          "092334.567500",
          "092335.567500",
          "092336.567500",
          "092337.567500",
          "092338.567500",
          "092339.567500",
          "092340.567500",
          "092341.567500",
          "092342.567500",
          "092343.567500",
          "092344.567500",
          "092345.567500",
          "092346.567500",
          "092347.567500",
          "092348.567500",
          "092349.567500",
          "092350.567500",
          "092351.567500",
          "092352.567500",
          "092353.567500",
          "092354.567500",
          "092355.567500",
          "092356.567500",
          "092357.567500",
          "092358.567500",
          "092359.567500",
          "092400.567500",
          "092401.567500",
          "092402.567500",
          "092403.567500",
          "092404.567500",
          "092405.567500",
          "092406.567500",
          "092407.567500",
          "092408.567500",
          "092409.567500",
          "092410.567500",
          "092411.567500",
          "092412.567500",
          "092413.567500",
          "092414.567500",
          "092415.567500",
          "092416.567500",
          "092417.567500",
          "092418.567500",
          "092419.567500",
          "092420.567500",
          "092421.567500",
          "092422.567500",
          "092423.567500",
          "092424.567500",
          "092425.567500",
          "092426.567500",
          "092427.567500",
          "092428.567500",
          "092429.567500",
          "092430.567500",
          "092431.567500",
          "092432.567500",
          "092433.567500",
          "092434.567500",
          "092435.567500",
          "092436.567500",
          "092437.567500",
          "092438.567500"
        ],
        "ContentTime": [
          "092227.955000",
          "092227.958000",
          "092227.961000",
          "092227.964000",
          "092227.967000",
          "092227.970000",
          "092227.973000",
          "092232.954000",
          "092232.957000",
          "092232.963000",
          "092232.966000",
          "092232.974000",
          "092232.977000",
          "092232.980000",
          "092237.955000",
          "092237.958000",
          "092237.961000",
          "092237.964000",
          "092237.966000",
          "092237.969000",
          "092237.972000",
          "092242.955000",
          "092242.958000",
          "092242.961000",
          "092242.963000",
          "092242.966000",
          "092242.969000",
          "092242.972000",
          "092247.954000",
          "092247.957000",
          "092247.960000",
          "092247.962000",
          "092247.965000",
          "092247.968000",
          "092247.971000",
          "092252.954000",
          "092252.957000",
          "092252.960000",
          "092252.963000",
          "092252.966000",
          "092252.969000",
          "092252.971000",
          "092257.955000",
          "092257.958000",
          "092257.961000",
          "092257.964000",
          "092257.966000",
          "092257.969000",
          "092257.972000",
          "092302.954000",
          "092302.957000",
          "092302.960000",
          "092302.963000",
          "092302.965000",
          "092302.968000",
          "092302.971000",
          "092307.954000",
          "092307.957000",
          "092307.960000",
          "092307.968000",
          "092307.971000",
          "092307.974000",
          "092307.977000",
          "092312.955000",
          "092312.958000",
          "092312.961000",
          "092312.964000",
          "092312.966000",
          "092312.969000",
          "092312.972000",
          "092317.955000",
          "092317.958000",
          "092317.961000",
          "092317.964000",
          "092317.966000",
          "092317.969000",
          "092317.972000",
          "092322.954000",
          "092322.957000",
          "092322.960000",
          "092322.963000",
          "092322.965000",
          "092322.968000",
          "092322.971000",
          "092327.954000",
          "092327.957000",
          "092327.960000",
          "092327.963000",
          "092327.972000",
          "092327.975000",
          "092327.978000",
          "092332.955000",
          "092332.958000",
          "092332.961000",
          "092332.964000",
          "092332.967000",
          "092332.970000",
          "092332.973000",
          "092332.976000",
          "092337.954000",
          "092337.957000",
          "092337.960000",
          "092337.963000",
          "092337.966000",
          "092337.968000",
          "092337.971000",
          "092342.954000",
          "092342.957000",
          "092342.960000",
          "092342.962000",
          "092342.965000",
          "092342.968000",
          "092342.971000",
          "092347.955000",
          "092347.958000",
          "092347.961000",
          "092347.964000",
          "092347.967000",
          "092347.970000",
          "092347.973000",
          "092352.955000",
          "092352.958000",
          "092352.961000",
          "092352.974000",
          "092352.977000",
          "092352.980000",
          "092352.983000",
          "092357.954000",
          "092357.957000",
          "092357.960000",
          "092357.963000",
          "092357.965000",
          "092357.968000",
          "092357.971000",
          "092402.954000",
          "092402.957000",
          "092402.960000",
          "092402.963000",
          "092402.966000",
          "092402.968000",
          "092402.971000",
          "092407.955000",
          "092407.958000",
          "092407.961000",
          "092407.964000",
          "092407.966000",
          "092407.969000",
          "092407.972000",
          "092412.954000",
          "092412.957000",
          "092412.960000",
          "092412.962000",
          "092412.965000",
          "092412.968000",
          "092412.971000",
          "092417.954000",
          "092417.957000",
          "092417.960000",
          "092417.962000",
          "092417.965000",
          "092417.968000",
          "092417.971000",
          "092422.955000",
          "092422.958000",
          "092422.961000",
          "092422.964000",
          "092422.967000",
          "092422.969000",
          "092422.972000",
          "092427.955000",
          "092427.958000",
          "092427.961000",
          "092427.963000",
          "092427.966000",
          "092427.969000",
          "092427.972000",
          "092432.954000",
          "092432.957000",
          "092432.960000",
          "092432.962000",
          "092432.965000",
          "092432.968000",
          "092432.971000",
          "092437.954000",
          "092437.957000",
          "092437.960000",
          "092437.963000",
          "092437.966000",
          "092437.969000",
          "092440.325000",
          "092440.329000",
          "092440.332000"
        ],
        "InstanceCreationTime": [
          "092227.955000",
          "092227.958000",
          "092227.961000",
          "092227.964000",
          "092227.967000",
          "092227.970000",
          "092227.973000",
          "092232.954000",
          "092232.957000",
          "092232.963000",
          "092232.966000",
          "092232.974000",
          "092232.977000",
          "092232.980000",
          "092237.955000",
          "092237.958000",
          "092237.961000",
          "092237.964000",
          "092237.966000",
          "092237.969000",
          "092237.972000",
          "092242.955000",
          "092242.958000",
          "092242.961000",
          "092242.963000",
          "092242.966000",
          "092242.969000",
          "092242.972000",
          "092247.954000",
          "092247.957000",
          "092247.960000",
          "092247.962000",
          "092247.965000",
          "092247.968000",
          "092247.971000",
          "092252.954000",
          "092252.957000",
          "092252.960000",
          "092252.963000",
          "092252.966000",
          "092252.969000",
          "092252.971000",
          "092257.955000",
          "092257.958000",
          "092257.961000",
          "092257.964000",
          "092257.966000",
          "092257.969000",
          "092257.972000",
          "092302.954000",
          "092302.957000",
          "092302.960000",
          "092302.963000",
          "092302.965000",
          "092302.968000",
          "092302.971000",
          "092307.954000",
          "092307.957000",
          "092307.960000",
          "092307.968000",
          "092307.971000",
          "092307.974000",
          "092307.977000",
          "092312.955000",
          "092312.958000",
          "092312.961000",
          "092312.964000",
          "092312.966000",
          "092312.969000",
          "092312.972000",
          "092317.955000",
          "092317.958000",
          "092317.961000",
          "092317.964000",
          "092317.966000",
          "092317.969000",
          "092317.972000",
          "092322.954000",
          "092322.957000",
          "092322.960000",
          "092322.963000",
          "092322.965000",
          "092322.968000",
          "092322.971000",
          "092327.954000",
          "092327.957000",
          "092327.960000",
          "092327.963000",
          "092327.972000",
          "092327.975000",
          "092327.978000",
          "092332.955000",
          "092332.958000",
          "092332.961000",
          "092332.964000",
          "092332.967000",
          "092332.970000",
          "092332.973000",
          "092332.976000",
          "092337.954000",
          "092337.957000",
          "092337.960000",
          "092337.963000",
          "092337.966000",
          "092337.968000",
          "092337.971000",
          "092342.954000",
          "092342.957000",
          "092342.960000",
          "092342.962000",
          "092342.965000",
          "092342.968000",
          "092342.971000",
          "092347.955000",
          "092347.958000",
          "092347.961000",
          "092347.964000",
          "092347.967000",
          "092347.970000",
          "092347.973000",
          "092352.955000",
          "092352.958000",
          "092352.961000",
          "092352.974000",
          "092352.977000",
          "092352.980000",
          "092352.983000",
          "092357.954000",
          "092357.957000",
          "092357.960000",
          "092357.963000",
          "092357.965000",
          "092357.968000",
          "092357.971000",
          "092402.954000",
          "092402.957000",
          "092402.960000",
          "092402.963000",
          "092402.966000",
          "092402.968000",
          "092402.971000",
          "092407.955000",
          "092407.958000",
          "092407.961000",
          "092407.964000",
          "092407.966000",
          "092407.969000",
          "092407.972000",
          "092412.954000",
          "092412.957000",
          "092412.960000",
          "092412.962000",
          "092412.965000",
          "092412.968000",
          "092412.971000",
          "092417.954000",
          "092417.957000",
          "092417.960000",
          "092417.962000",
          "092417.965000",
          "092417.968000",
          "092417.971000",
          "092422.955000",
          "092422.958000",
          "092422.961000",
          "092422.964000",
          "092422.967000",
          "092422.969000",
          "092422.972000",
          "092427.955000",
          "092427.958000",
          "092427.961000",
          "092427.963000",
          "092427.966000",
          "092427.969000",
          "092427.972000",
          "092432.954000",
          "092432.957000",
          "092432.960000",
          "092432.962000",
          "092432.965000",
          "092432.968000",
          "092432.971000",
          "092437.954000",
          "092437.957000",
          "092437.960000",
          "092437.963000",
          "092437.966000",
          "092437.969000",
          "092440.325000",
          "092440.329000",
          "092440.332000"
        ],
        "InstanceNumber": [
          1,
          2,
          3,
          4,
          5,
          6,
          7,
          8,
          9,
          10,
          11,
          12,
          13,
          14,
          15,
          16,
          17,
          18,
          19,
          20,
          21,
          22,
          23,
          24,
          25,
          26,
          27,
          28,
          29,
          30,
          31,
          32,
          33,
          34,
          35,
          36,
          37,
          38,
          39,
          40,
          41,
          42,
          43,
          44,
          45,
          46,
          47,
          48,
          49,
          50,
          51,
          52,
          53,
          54,
          55,
          56,
          57,
          58,
          59,
          60,
          61,
          62,
          63,
          64,
          65,
          66,
          67,
          68,
          69,
          70,
          71,
          72,
          73,
          74,
          75,
          76,
          77,
          78,
          79,
          80,
          81,
          82,
          83,
          84,
          85,
          86,
          87,
          88,
          89,
          90,
          91,
          92,
          93,
          94,
          95,
          96,
          97,
          98,
          99,
          100,
          101,
          102,
          103,
          104,
          105,
          106,
          107,
          108,
          109,
          110,
          111,
          112,
          113,
          114,
          115,
          116,
          117,
          118,
          119,
          120,
          121,
          122,
          123,
          124,
          125,
          126,
          127,
          128,
          129,
          130,
          131,
          132,
          133,
          134,
          135,
          136,
          137,
          138,
          139,
          140,
          141,
          142,
          143,
          144,
          145,
          146,
          147,
          148,
          149,
          150,
          151,
          152,
          153,
          154,
          155,
          156,
          157,
          158,
          159,
          160,
          161,
          162,
          163,
          164,
          165,
          166,
          167,
          168,
          169,
          170,
          171,
          172,
          173,
          174,
          175,
          176,
          177,
          178,
          179,
          180,
          181,
          182,
          183,
          184,
          185,
          186,
          187,
          188,
          189,
          190,
          191,
          192
        ],
        "LargestImagePixelValue": [
          35349,
          33841,
          33634,
          32933,
          32807,
          32495,
          33417,
          33057,
          32730,
          33120,
          33115,
          32684,
          33031,
          33627,
          33055,
          33133,
          33300,
          33198,
          33001,
          33002,
          33108,
          33063,
          33279,
          32972,
          32221,
          32604,
          33140,
          33082,
          33218,
          33199,
          32956,
          32982,
          32933,
          32787,
          32955,
          33340,
          33129,
          33246,
          33252,
          32655,
          33450,
          32987,
          33106,
          33565,
          32843,
          33206,
          33345,
          33236,
          33056,
          33061,
          33147,
          33322,
          33740,
          33396,
          33168,
          33508,
          32678,
          33029,
          33730,
          33259,
          33208,
          33788,
          33147,
          33271,
          33597,
          33116,
          33415,
          33426,
          32978,
          33570,
          32869,
          32913,
          33372,
          32870,
          33107,
          33472,
          33450,
          32935,
          33338,
          33250,
          32891,
          33444,
          33437,
