{
  "aor": 0.0005221989528795811,
  "aqi": 0.005986505078534032,
  "bids_meta": {
    "AcquisitionMatrixPE": 104,
    "AcquisitionNumber": 1,
    "AcquisitionTime": "09:46:8.825000",
    "BandwidthPerPixelPhaseEncode": 16.578,
    "BaseResolution": 104,
    "BodyPartExamined": "BRAIN",
    "CogAtlasID": "TODO",
    "ConsistencyInfo": "N4_VE11C_LATEST_20160120",
    "ConversionSoftware": "dcm2niix",
    "ConversionSoftwareVersion": "v1.0.20190902",
    "DerivedVendorReportedEchoSpacing": 0.000580009,
    "DeviceSerialNumber": "166018",
    "DwellTime": 2.1e-06,
    "EchoTime": 0.037,
    "EchoTrainLength": 104,
    "EffectiveEchoSpacing": 0.000580009,
    "FlipAngle": 68,
    "ImageComments": "Unaliased_MB6_PE3_LB",
    "ImageOrientationPatientDICOM": [
      0.997174,
      0.0683814,
      -0.0311172,
      -0.0727029,
      0.982713,
      -0.170265
    ],
    "ImageType": [
      "ORIGINAL",
      "PRIMARY",
      "M",
      "MB",
      "ND",
      "MOSAIC"
    ],
    "ImagingFrequency": 123.191,
    "InPlanePhaseEncodingDirectionDICOM": "COL",
    "InstitutionAddress": "Washington_Place_6_NYC_NYC_US_10003",
    "InstitutionName": "NYU_-_CBI",
    "InstitutionalDepartmentName": "Department",
    "MRAcquisitionType": "2D",
    "MagneticFieldStrength": 3,
    "Manufacturer": "Siemens",
    "ManufacturersModelName": "Prisma",
    "Modality": "MR",
    "MultibandAccelerationFactor": 6,
    "NumberOfVolumes": 192,
    "PartialFourier": 1,
    "PatientPosition": "HFS",
    "PercentPhaseFOV": 100,
    "PhaseEncodingDirection": "j",
    "PhaseEncodingSteps": 104,
    "PhaseResolution": 1,
    "PixelBandwidth": 2290,
    "ProcedureStepDescription": "Investigators_Winawer",
    "ProtocolName": "cmrr_mbepi_s6_2mm_66sl_PA_task-prf",
    "PulseSequenceDetails": "%CustomerSeq%_cmrr_mbep2d_bold",
    "ReceiveCoilActiveElements": "HC1-7",
    "ReceiveCoilName": "HeadNeck_64",
    "ReconMatrixPE": 104,
    "RepetitionTime": 1,
    "SAR": 0.0743118,
    "ScanOptions": "FS",
    "ScanningSequence": "EP",
    "SequenceName": "epfid2d1_104",
    "SequenceVariant": "SK_SS",
    "SeriesDescription": "cmrr_mbepi_s6_2mm_66sl_PA_task-prf",
    "SeriesNumber": 18,
    "ShimSetting": [
      239,
      -12590,
      -8441,
      448,
      -86,
      -143,
      -23,
      47
    ],
    "SliceThickness": 2,
    "SliceTiming": [
      0,
      0.535,
      0.0875,
      0.6225,
      0.1775,
      0.7125,
      0.2675,
      0.8,
      0.355,
      0.89,
      0.445,
      0,
      0.535,
      0.0875,
      0.6225,
      0.1775,
      0.7125,
      0.2675,
      0.8,
      0.355,
      0.89,
      0.445,
      0,
      0.535,
      0.0875,
      0.6225,
      0.1775,
      0.7125,
      0.2675,
      0.8,
      0.355,
      0.89,
      0.445,
      0,
      0.535,
      0.0875,
      0.6225,
      0.1775,
      0.7125,
      0.2675,
      0.8,
      0.355,
      0.89,
      0.445,
      0,
      0.535,
      0.0875,
      0.6225,
      0.1775,
      0.7125,
      0.2675,
      0.8,
      0.355,
      0.89,
      0.445,
      0,
      0.535,
      0.0875,
      0.6225,
      0.1775,
      0.7125,
      0.2675,
      0.8,
      0.355,
      0.89,
      0.445
    ],
    "SoftwareVersions": "syngo_MR_E11",
    "SpacingBetweenSlices": 2,
    "StationName": "AWP166018",
    "TaskName": "prf",
    "TotalReadoutTime": 0.0597409,
    "TxRefAmp": 227.081,
    "WipMemBlock": "71d07964-bae7-42ea-8f7c-99685d3c5bbf||Sequence: R016 ve11c/master r/8780670; Nov 27 2017 15:05:12 by eja",
    "acq_id": "PA",
    "dataset": "unknown",
    "dcmmeta_affine": [
      [
        -1.9943476915359497,
        -0.1454058289527893,
        -0.037872642278671265,
        115.68653869628906
      ],
      [
        -0.1367628127336502,
        1.9654252529144287,
        -0.3440922498703003,
        -69.1511001586914
      ],
      [
        -0.06223443150520325,
        0.34053000807762146,
        1.9698138236999512,
        -57.85879135131836
      ],
      [
        0.0,
        0.0,
        0.0,
        1.0
      ]
    ],
    "dcmmeta_reorient_transform": [
      [
        0.0,
        -1.0,
        0.0,
        103.0
      ],
      [
        1.0,
        0.0,
        0.0,
        0.0
      ],
      [
        0.0,
        0.0,
        1.0,
        0.0
      ],
      [
        0.0,
        0.0,
        0.0,
        1.0
      ]
    ],
    "dcmmeta_shape": [
      104,
      104,
      66,
      192
    ],
    "dcmmeta_slice_dim": 2,
    "dcmmeta_version": 0.6,
    "global": {
      "const": {
        "AccessionNumber": "jur4wd1m",
        "AcquisitionMatrix": [
          104,
          0,
          0,
          104
        ],
        "AngioFlag": "N",
        "BitsAllocated": 16,
        "BitsStored": 16,
        "BodyPartExamined": "BRAIN",
        "Columns": 936,
        "EchoNumbers": 1,
        "EchoTime": 37.0,
        "EchoTrainLength": 104,
        "FlipAngle": 68.0,
        "HighBit": 15,
        "ImageOrientationPatient": [
          0.99717385749444,
          0.06838140670034,
          -0.0311172162531,
          -0.0727029137918,
          0.9827126310668,
          -0.1702650024754
        ],
        "ImagePositionPatient": [
          -869.8695601759,
          -1007.7979439869,
          144.76580567999
        ],
        "ImageType": [
          "ORIGINAL",
          "PRIMARY",
          "M",
          "MB",
          "ND",
          "MOSAIC"
        ],
        "ImagedNucleus": "1H",
        "ImagingFrequency": 123.191063,
        "InPlanePhaseEncodingDirection": "COL",
        "MRAcquisitionType": "2D",
        "MagneticFieldStrength": 3.0,
        "Manufacturer": "SIEMENS",
        "ManufacturerModelName": "Prisma",
        "Modality": "MR",
        "NumberOfAverages": 1.0,
        "NumberOfPhaseEncodingSteps": 104,
        "PercentPhaseFieldOfView": 100.0,
        "PercentSampling": 100.0,
        "PerformedProcedureStepStartTime": "090429.769000",
        "PhotometricInterpretation": "MONOCHROME2",
        "PixelBandwidth": 2290.0,
        "PixelRepresentation": 0,
        "PixelSpacing": [
          2.0,
          2.0
        ],
        "ProtocolName": "cmrr_mbepi_s6_2mm_66sl_PA_task-prf",
        "RepetitionTime": 1000.0,
        "Rows": 936,
        "SAR": 0.07431180054154,
        "SamplesPerPixel": 1,
        "ScanOptions": "FS",
        "ScanningSequence": "EP",
        "SequenceName": "epfid2d1_104",
        "SequenceVariant": [
          "SK",
          "SS"
        ],
        "SeriesDescription": "cmrr_mbepi_s6_2mm_66sl_PA_task-prf",
        "SeriesNumber": 18,
        "SeriesTime": "094707.014000",
        "SliceLocation": -47.279019970817,
        "SliceThickness": 2.0,
        "SmallestImagePixelValue": 0,
        "SoftwareVersions": "syngo MR E11",
        "SpacingBetweenSlices": 2.0000000230754,
        "SpecificCharacterSet": "ISO_IR 100",
        "StudyID": "1",
        "StudyTime": "090429.665000",
        "TransmitCoilName": "Body",
        "VariableFlipAngleFlag": "N",
        "WindowCenterWidthExplanation": "Algo1",
        "dBdt": 0.0
      },
      "slices": {}
    },
    "modality": "bold",
    "run_id": 6,
    "session_id": "nyu3t01",
    "subject_id": "wlsubj085",
    "task_id": "prf",
    "time": {
      "samples": {
        "AcquisitionNumber": [
          1,
          2,
          3,
          4,
          5,
          6,
          7,
          8,
          9,
          10,
          11,
          12,
          13,
          14,
          15,
          16,
          17,
          18,
          19,
          20,
          21,
          22,
          23,
          24,
          25,
          26,
          27,
          28,
          29,
          30,
          31,
          32,
          33,
          34,
          35,
          36,
          37,
          38,
          39,
          40,
          41,
          42,
          43,
          44,
          45,
          46,
          47,
          48,
          49,
          50,
          51,
          52,
          53,
          54,
          55,
          56,
          57,
          58,
          59,
          60,
          61,
          62,
          63,
          64,
          65,
          66,
          67,
          68,
          69,
          70,
          71,
          72,
          73,
          74,
          75,
          76,
          77,
          78,
          79,
          80,
          81,
          82,
          83,
          84,
          85,
          86,
          87,
          88,
          89,
          90,
          91,
          92,
          93,
          94,
          95,
          96,
          97,
          98,
          99,
          100,
          101,
          102,
          103,
          104,
          105,
          106,
          107,
          108,
          109,
          110,
          111,
          112,
          113,
          114,
          115,
          116,
          117,
          118,
          119,
          120,
          121,
          122,
          123,
          124,
          125,
          126,
          127,
          128,
          129,
          130,
          131,
          132,
          133,
          134,
          135,
          136,
          137,
          138,
          139,
          140,
          141,
          142,
          143,
          144,
          145,
          146,
          147,
          148,
          149,
          150,
          151,
          152,
          153,
          154,
          155,
          156,
          157,
          158,
          159,
          160,
          161,
          162,
          163,
          164,
          165,
          166,
          167,
          168,
          169,
          170,
          171,
          172,
          173,
          174,
          175,
          176,
          177,
          178,
          179,
          180,
          181,
          182,
          183,
          184,
          185,
          186,
          187,
          188,
          189,
          190,
          191,
          192
        ],
        "AcquisitionTime": [
          "094608.825000",
          "094609.825000",
          "094610.825000",
          "094611.825000",
          "094612.825000",
          "094613.825000",
          "094614.825000",
          "094615.825000",
          "094616.825000",
          "094617.825000",
          "094618.825000",
          "094619.825000",
          "094620.825000",
          "094621.825000",
          "094622.825000",
          "094623.825000",
          "094624.825000",
          "094625.825000",
          "094626.825000",
          "094627.825000",
          "094628.825000",
          "094629.825000",
          "094630.825000",
          "094631.825000",
          "094632.825000",
          "094633.825000",
          "094634.825000",
          "094635.825000",
          "094636.825000",
          "094637.825000",
          "094638.825000",
          "094639.825000",
          "094640.825000",
          "094641.825000",
          "094642.825000",
          "094643.825000",
          "094644.825000",
          "094645.825000",
          "094646.825000",
          "094647.825000",
          "094648.825000",
          "094649.825000",
          "094650.825000",
          "094651.825000",
          "094652.825000",
          "094653.825000",
          "094654.825000",
          "094655.825000",
          "094656.825000",
          "094657.825000",
          "094658.825000",
          "094659.825000",
          "094700.825000",
          "094701.825000",
          "094702.825000",
          "094703.825000",
          "094704.825000",
          "094705.825000",
          "094706.825000",
          "094707.825000",
          "094708.825000",
          "094709.825000",
          "094710.825000",
          "094711.825000",
          "094712.825000",
          "094713.825000",
          "094714.825000",
          "094715.825000",
          "094716.825000",
          "094717.825000",
          "094718.825000",
          "094719.825000",
          "094720.825000",
          "094721.825000",
          "094722.825000",
          "094723.825000",
          "094724.825000",
          "094725.825000",
          "094726.825000",
          "094727.825000",
          "094728.825000",
          "094729.825000",
          "094730.825000",
          "094731.825000",
          "094732.825000",
          "094733.825000",
          "094734.825000",
          "094735.825000",
          "094736.825000",
          "094737.825000",
          "094738.825000",
          "094739.825000",
          "094740.825000",
          "094741.825000",
          "094742.825000",
          "094743.825000",
          "094744.825000",
          "094745.825000",
          "094746.825000",
          "094747.825000",
          "094748.825000",
          "094749.825000",
          "094750.825000",
          "094751.825000",
          "094752.825000",
          "094753.825000",
          "094754.825000",
          "094755.825000",
          "094756.825000",
          "094757.825000",
          "094758.825000",
          "094759.825000",
          "094800.825000",
          "094801.825000",
          "094802.825000",
          "094803.825000",
          "094804.825000",
          "094805.825000",
          "094806.825000",
          "094807.825000",
          "094808.825000",
          "094809.825000",
          "094810.825000",
          "094811.825000",
          "094812.825000",
          "094813.825000",
          "094814.825000",
          "094815.825000",
          "094816.825000",
          "094817.825000",
          "094818.825000",
          "094819.825000",
          "094820.825000",
          "094821.825000",
          "094822.825000",
          "094823.825000",
          "094824.825000",
          "094825.825000",
          "094826.825000",
          "094827.825000",
          "094828.825000",
          "094829.825000",
          "094830.825000",
          "094831.825000",
          "094832.825000",
          "094833.825000",
          "094834.825000",
          "094835.825000",
          "094836.825000",
          "094837.825000",
          "094838.825000",
          "094839.825000",
          "094840.825000",
          "094841.825000",
          "094842.825000",
          "094843.825000",
          "094844.825000",
          "094845.825000",
          "094846.825000",
          "094847.825000",
          "094848.825000",
          "094849.825000",
          "094850.825000",
          "094851.825000",
          "094852.825000",
          "094853.825000",
          "094854.825000",
          "094855.825000",
          "094856.825000",
          "094857.825000",
          "094858.825000",
          "094859.825000",
          "094900.825000",
          "094901.825000",
          "094902.825000",
          "094903.825000",
          "094904.825000",
          "094905.825000",
          "094906.825000",
          "094907.825000",
          "094908.825000",
          "094909.825000",
          "094910.825000",
          "094911.825000",
          "094912.825000",
          "094913.825000",
          "094914.825000",
          "094915.825000",
          "094916.825000",
          "094917.825000",
          "094918.825000",
          "094919.825000"
        ],
        "ContentTime": [
          "094707.016000",
          "094707.020000",
          "094711.985000",
          "094711.988000",
          "094711.991000",
          "094711.994000",
          "094711.997000",
          "094712.000000",
          "094712.003000",
          "094716.985000",
          "094716.988000",
          "094716.991000",
          "094716.994000",
          "094716.998000",
          "094717.003000",
          "094717.007000",
          "094721.985000",
          "094721.995000",
          "094721.998000",
          "094722.002000",
          "094722.005000",
          "094722.008000",
          "094722.011000",
          "094726.985000",
          "094726.988000",
          "094726.991000",
          "094726.994000",
          "094726.996000",
          "094727.000000",
          "094727.003000",
          "094727.006000",
          "094731.985000",
          "094731.988000",
          "094731.991000",
          "094731.993000",
          "094731.996000",
          "094732.000000",
          "094732.003000",
          "094736.985000",
          "094736.988000",
          "094736.991000",
          "094736.994000",
          "094736.997000",
          "094737.000000",
          "094737.003000",
          "094741.985000",
          "094741.988000",
          "094741.991000",
          "094741.994000",
          "094741.997000",
          "094742.000000",
          "094742.003000",
          "094746.985000",
          "094746.988000",
          "094746.991000",
          "094746.994000",
          "094746.996000",
          "094747.000000",
          "094747.003000",
          "094751.985000",
          "094751.988000",
          "094751.991000",
          "094752.001000",
          "094752.004000",
          "094752.007000",
          "094752.009000",
          "094756.985000",
          "094756.988000",
          "094756.991000",
          "094756.994000",
          "094756.997000",
          "094757.002000",
          "094757.005000",
          "094801.985000",
          "094801.988000",
          "094801.991000",
          "094801.994000",
          "094801.997000",
          "094802.001000",
          "094802.003000",
          "094806.985000",
          "094806.988000",
          "094806.991000",
          "094806.994000",
          "094806.997000",
          "094807.000000",
          "094807.003000",
          "094811.985000",
          "094811.988000",
          "094811.991000",
          "094811.994000",
          "094811.997000",
          "094812.001000",
          "094812.004000",
          "094816.985000",
          "094816.988000",
          "094816.991000",
          "094816.994000",
          "094816.996000",
          "094817.000000",
          "094817.003000",
          "094821.985000",
          "094821.988000",
          "094821.991000",
          "094821.994000",
          "094822.000000",
          "094822.003000",
          "094822.006000",
          "094822.009000",
          "094826.985000",
          "094826.988000",
          "094826.991000",
          "094826.994000",
          "094826.997000",
          "094827.001000",
          "094827.003000",
          "094831.985000",
          "094831.988000",
          "094831.991000",
          "094831.994000",
          "094831.996000",
          "094832.000000",
          "094832.003000",
          "094836.985000",
          "094836.988000",
          "094836.991000",
          "094836.994000",
          "094836.997000",
          "094837.001000",
          "094837.003000",
          "094841.985000",
          "094841.988000",
          "094841.991000",
          "094841.994000",
          "094841.997000",
          "094842.001000",
          "094842.003000",
          "094846.985000",
          "094846.988000",
          "094846.991000",
          "094846.994000",
          "094846.997000",
          "094847.001000",
          "094847.004000",
          "094851.985000",
          "094851.988000",
          "094851.991000",
          "094851.994000",
          "094851.997000",
          "094852.001000",
          "094852.004000",
          "094856.985000",
          "094856.988000",
          "094856.991000",
          "094856.994000",
          "094856.997000",
          "094857.000000",
          "094857.003000",
          "094901.985000",
          "094901.988000",
          "094901.991000",
          "094901.994000",
          "094901.997000",
          "094902.001000",
          "094902.004000",
          "094906.985000",
          "094906.988000",
          "094906.991000",
          "094907.001000",
          "094907.004000",
          "094907.008000",
          "094907.012000",
          "094911.985000",
          "094911.988000",
          "094911.991000",
          "094911.994000",
          "094911.997000",
          "094912.000000",
          "094912.003000",
          "094912.006000",
          "094916.995000",
          "094916.998000",
          "094917.002000",
          "094917.005000",
          "094917.007000",
          "094917.010000",
          "094917.013000",
          "094921.623000",
          "094921.627000",
          "094921.630000",
          "094921.633000",
          "094921.636000"
        ],
        "InstanceCreationTime": [
          "094707.016000",
          "094707.020000",
          "094711.985000",
          "094711.988000",
          "094711.991000",
          "094711.994000",
          "094711.997000",
          "094712.000000",
          "094712.003000",
          "094716.985000",
          "094716.988000",
          "094716.991000",
          "094716.994000",
          "094716.998000",
          "094717.003000",
          "094717.007000",
          "094721.985000",
          "094721.995000",
          "094721.998000",
          "094722.002000",
          "094722.005000",
          "094722.008000",
          "094722.011000",
          "094726.985000",
          "094726.988000",
          "094726.991000",
          "094726.994000",
          "094726.996000",
          "094727.000000",
          "094727.003000",
          "094727.006000",
          "094731.985000",
          "094731.988000",
          "094731.991000",
          "094731.993000",
          "094731.996000",
          "094732.000000",
          "094732.003000",
          "094736.985000",
          "094736.988000",
          "094736.991000",
          "094736.994000",
          "094736.997000",
          "094737.000000",
          "094737.003000",
          "094741.985000",
          "094741.988000",
          "094741.991000",
          "094741.994000",
          "094741.997000",
          "094742.000000",
          "094742.003000",
          "094746.985000",
          "094746.988000",
          "094746.991000",
          "094746.994000",
          "094746.996000",
          "094747.000000",
          "094747.003000",
          "094751.985000",
          "094751.988000",
          "094751.991000",
          "094752.001000",
          "094752.004000",
          "094752.007000",
          "094752.009000",
          "094756.985000",
          "094756.988000",
          "094756.991000",
          "094756.994000",
          "094756.997000",
          "094757.002000",
          "094757.005000",
          "094801.985000",
          "094801.988000",
          "094801.991000",
          "094801.994000",
          "094801.997000",
          "094802.001000",
          "094802.003000",
          "094806.985000",
          "094806.988000",
          "094806.991000",
          "094806.994000",
          "094806.997000",
          "094807.000000",
          "094807.003000",
          "094811.985000",
          "094811.988000",
          "094811.991000",
          "094811.994000",
          "094811.997000",
          "094812.001000",
          "094812.004000",
          "094816.985000",
          "094816.988000",
          "094816.991000",
          "094816.994000",
          "094816.996000",
          "094817.000000",
          "094817.003000",
          "094821.985000",
          "094821.988000",
          "094821.991000",
          "094821.994000",
          "094822.000000",
          "094822.003000",
          "094822.006000",
          "094822.009000",
          "094826.985000",
          "094826.988000",
          "094826.991000",
          "094826.994000",
          "094826.997000",
          "094827.001000",
          "094827.003000",
          "094831.985000",
          "094831.988000",
          "094831.991000",
          "094831.994000",
          "094831.996000",
          "094832.000000",
          "094832.003000",
          "094836.985000",
          "094836.988000",
          "094836.991000",
          "094836.994000",
          "094836.997000",
          "094837.001000",
          "094837.003000",
          "094841.985000",
          "094841.988000",
          "094841.991000",
          "094841.994000",
          "094841.997000",
          "094842.001000",
          "094842.003000",
          "094846.985000",
          "094846.988000",
          "094846.991000",
          "094846.994000",
          "094846.997000",
          "094847.001000",
          "094847.004000",
          "094851.985000",
          "094851.988000",
          "094851.991000",
          "094851.994000",
          "094851.997000",
          "094852.001000",
          "094852.004000",
          "094856.985000",
          "094856.988000",
          "094856.991000",
          "094856.994000",
          "094856.997000",
          "094857.000000",
          "094857.003000",
          "094901.985000",
          "094901.988000",
          "094901.991000",
          "094901.994000",
          "094901.997000",
          "094902.001000",
          "094902.004000",
          "094906.985000",
          "094906.988000",
          "094906.991000",
          "094907.001000",
          "094907.004000",
          "094907.008000",
          "094907.012000",
          "094911.985000",
          "094911.988000",
          "094911.991000",
          "094911.994000",
          "094911.997000",
          "094912.000000",
          "094912.003000",
          "094912.006000",
          "094916.995000",
          "094916.998000",
          "094917.002000",
          "094917.005000",
          "094917.007000",
          "094917.010000",
          "094917.013000",
          "094921.623000",
          "094921.627000",
          "094921.630000",
          "094921.633000",
          "094921.636000"
        ],
        "InstanceNumber": [
          1,
          2,
          3,
          4,
          5,
          6,
          7,
          8,
          9,
          10,
          11,
          12,
          13,
          14,
          15,
          16,
          17,
          18,
          19,
          20,
          21,
          22,
          23,
          24,
          25,
          26,
          27,
          28,
          29,
          30,
          31,
          32,
          33,
          34,
          35,
          36,
          37,
          38,
          39,
          40,
          41,
          42,
          43,
          44,
          45,
          46,
          47,
          48,
          49,
          50,
          51,
          52,
          53,
          54,
          55,
          56,
          57,
          58,
          59,
          60,
          61,
          62,
          63,
          64,
          65,
          66,
          67,
          68,
          69,
          70,
          71,
          72,
          73,
          74,
          75,
          76,
          77,
          78,
          79,
          80,
          81,
          82,
          83,
          84,
          85,
          86,
          87,
          88,
          89,
          90,
          91,
          92,
          93,
          94,
          95,
          96,
          97,
          98,
          99,
          100,
          101,
          102,
          103,
          104,
          105,
          106,
          107,
          108,
          109,
          110,
          111,
          112,
          113,
          114,
          115,
          116,
          117,
          118,
          119,
          120,
          121,
          122,
          123,
          124,
          125,
          126,
          127,
          128,
          129,
          130,
          131,
          132,
          133,
          134,
          135,
          136,
          137,
          138,
          139,
          140,
          141,
          142,
          143,
          144,
          145,
          146,
          147,
          148,
          149,
          150,
          151,
          152,
          153,
          154,
          155,
          156,
          157,
          158,
          159,
          160,
          161,
          162,
          163,
          164,
          165,
          166,
          167,
          168,
          169,
          170,
          171,
          172,
          173,
          174,
          175,
          176,
          177,
          178,
          179,
          180,
          181,
          182,
          183,
          184,
          185,
          186,
          187,
          188,
          189,
          190,
          191,
          192
        ],
        "LargestImagePixelValue": [
          33097,
          32214,
          31843,
          31820,
          32029,
          31847,
          32824,
          33040,
          32939,
          32891,
          33054,
          32936,
          32409,
          32795,
          32510,
          32069,
          32989,
          32176,
          32304,
          33026,
          32559,
          32029,
          32271,
          31758,
          31877,
          31558,
          31600,
          31344,
          31413,
          32024,
          32016,
          31248,
          31352,
          31826,
          31844,
          31472,
          31243,
          31006,
          31352,
          31719,
          31417,
          32381,
          32567,
          33333,
          33674,
          33161,
          33345,
          32863,
          32351,
          32610,
          33087,
          32728,
          32930,
          33014,
          32853,
          32826,
          32767,
          32052,
          31302,
          31578,
          31396,
          31740,
          31961,
          32133,
          31921,
          32586,
          31768,
          32493,
          32214,
          32870,
          32194,
          31728,
          31185,
          30908,
          33901,
          30574,
          31022,
          30913,
          30891,
          31532,
          31871,
          32149,
          32477,
