{
  "aor": 0.0011378125000000002,
  "aqi": 0.008815532916666667,
  "bids_meta": {
    "AcquisitionMatrixPE": 104,
    "AcquisitionNumber": 1,
    "AcquisitionTime": "11:34:55.610000",
    "BandwidthPerPixelPhaseEncode": 16.578,
    "BaseResolution": 104,
    "BodyPartExamined": "BRAIN",
    "CogAtlasID": "doi:TODO",
    "ConsistencyInfo": "N4_VE11C_LATEST_20160120",
    "ConversionSoftware": "dcm2niix",
    "ConversionSoftwareVersion": "v1.0.20190902",
    "DerivedVendorReportedEchoSpacing": 0.000580009,
    "DeviceSerialNumber": "166018",
    "DwellTime": 2.1e-06,
    "EchoTime": 0.037,
    "EchoTrainLength": 104,
    "EffectiveEchoSpacing": 0.000580009,
    "FlipAngle": 68,
    "ImageComments": "Unaliased_MB6_PE3_LB",
    "ImageOrientationPatientDICOM": [
      0.999537,
      0.0119348,
      0.0279765,
      -0.00575695,
      0.977409,
      -0.21128
    ],
    "ImageType": [
      "ORIGINAL",
      "PRIMARY",
      "M",
      "MB",
      "ND",
      "MOSAIC"
    ],
    "ImagingFrequency": 123.191,
    "InPlanePhaseEncodingDirectionDICOM": "COL",
    "InstitutionAddress": "Washington_Place_6_NYC_NYC_US_10003",
    "InstitutionName": "NYU_Center_for_Brain_Imaging",
    "InstitutionalDepartmentName": "Department",
    "MRAcquisitionType": "2D",
    "MagneticFieldStrength": 3,
    "Manufacturer": "Siemens",
    "ManufacturersModelName": "Prisma",
    "Modality": "MR",
    "MultibandAccelerationFactor": 6,
    "NumberOfVolumes": 192,
    "PartialFourier": 1,
    "PatientPosition": "HFS",
    "PercentPhaseFOV": 100,
    "PhaseEncodingDirection": "j",
    "PhaseEncodingSteps": 104,
    "PhaseResolution": 1,
    "PixelBandwidth": 2290,
    "ProcedureStepDescription": "Investigators_Winawer",
    "ProtocolName": "cmrr_mbepi_s6_2mm_66sl_PA_task-prf",
    "PulseSequenceDetails": "%CustomerSeq%_cmrr_mbep2d_bold",
    "ReceiveCoilActiveElements": "HC1-7",
    "ReceiveCoilName": "HeadNeck_64",
    "ReconMatrixPE": 104,
    "RepetitionTime": 1,
    "SAR": 0.0693344,
    "ScanOptions": "FS",
    "ScanningSequence": "EP",
    "SequenceName": "epfid2d1_104",
    "SequenceVariant": "SK_SS",
    "SeriesDescription": "cmrr_mbepi_s6_2mm_66sl_PA_task-prf",
    "SeriesNumber": 10,
    "ShimSetting": [
      260,
      -12599,
      -8432,
      374,
      -73,
      -1,
      -69,
      5
    ],
    "SliceThickness": 2,
    "SliceTiming": [
      0,
      0.535,
      0.09,
      0.6225,
      0.1775,
      0.7125,
      0.2675,
      0.8025,
      0.355,
      0.89,
      0.445,
      0,
      0.535,
      0.09,
      0.6225,
      0.1775,
      0.7125,
      0.2675,
      0.8025,
      0.355,
      0.89,
      0.445,
      0,
      0.535,
      0.09,
      0.6225,
      0.1775,
      0.7125,
      0.2675,
      0.8025,
      0.355,
      0.89,
      0.445,
      0,
      0.535,
      0.09,
      0.6225,
      0.1775,
      0.7125,
      0.2675,
      0.8025,
      0.355,
      0.89,
      0.445,
      0,
      0.535,
      0.09,
      0.6225,
      0.1775,
      0.7125,
      0.2675,
      0.8025,
      0.355,
      0.89,
      0.445,
      0,
      0.535,
      0.09,
      0.6225,
      0.1775,
      0.7125,
      0.2675,
      0.8025,
      0.355,
      0.89,
      0.445
    ],
    "SoftwareVersions": "syngo_MR_E11",
    "SpacingBetweenSlices": 2,
    "StationName": "AWP166018",
    "TaskName": "prf",
    "TotalReadoutTime": 0.0597409,
    "TxRefAmp": 249.54,
    "WipMemBlock": "71a8b669-28d1-49a6-b094-e64b77e8a4b7||Sequence: R016 ve11c/master r/8780670; Nov 27 2017 15:05:12 by eja",
    "acq_id": "PA",
    "dataset": "unknown",
    "dcmmeta_affine": [
      [
        -1.9990746974945068,
        -0.011513893492519855,
        0.05973207205533981,
        106.42056274414062
      ],
      [
        -0.023869547992944717,
        1.954817295074463,
        -0.4220421314239502,
        -71.32170867919922
      ],
      [
        0.05595296993851662,
        0.4225597679615021,
        1.9540503025054932,
        -84.3438949584961
      ],
      [
        0.0,
        0.0,
        0.0,
        1.0
      ]
    ],
    "dcmmeta_reorient_transform": [
      [
        0.0,
        -1.0,
        0.0,
        103.0
      ],
      [
        1.0,
        0.0,
        0.0,
        0.0
      ],
      [
        0.0,
        0.0,
        1.0,
        0.0
      ],
      [
        0.0,
        0.0,
        0.0,
        1.0
      ]
    ],
    "dcmmeta_shape": [
      104,
      104,
      66,
      192
    ],
    "dcmmeta_slice_dim": 2,
    "dcmmeta_version": 0.6,
    "global": {
      "const": {
        "AccessionNumber": "k2dxvqw6",
        "AcquisitionMatrix": [
          104,
          0,
          0,
          104
        ],
        "AngioFlag": "N",
        "BitsAllocated": 16,
        "BitsStored": 16,
        "BodyPartExamined": "BRAIN",
        "Columns": 936,
        "EchoNumbers": 1,
        "EchoTime": 37.0,
        "EchoTrainLength": 104,
        "FlipAngle": 68.0,
        "HighBit": 15,
        "ImageOrientationPatient": [
          0.99953733169658,
          0.01193477430348,
          0.02797648489712,
          -0.0057569468846,
          0.97740865078441,
          -0.2112798782051
        ],
        "ImagePositionPatient": [
          -932.05991396374,
          -953.15820306915,
          111.6881832591
        ],
        "ImageType": [
          "ORIGINAL",
          "PRIMARY",
          "M",
          "MB",
          "ND",
          "MOSAIC"
        ],
        "ImagedNucleus": "1H",
        "ImagingFrequency": 123.190764,
        "InPlanePhaseEncodingDirection": "COL",
        "MRAcquisitionType": "2D",
        "MagneticFieldStrength": 3.0,
        "Manufacturer": "SIEMENS",
        "ManufacturerModelName": "Prisma",
        "Modality": "MR",
        "NumberOfAverages": 1.0,
        "NumberOfPhaseEncodingSteps": 104,
        "PercentPhaseFieldOfView": 100.0,
        "PercentSampling": 100.0,
        "PerformedProcedureStepStartTime": "112402.648000",
        "PhotometricInterpretation": "MONOCHROME2",
        "PixelBandwidth": 2290.0,
        "PixelRepresentation": 0,
        "PixelSpacing": [
          2.0,
          2.0
        ],
        "ProtocolName": "cmrr_mbepi_s6_2mm_66sl_PA_task-prf",
        "RepetitionTime": 1000.0,
        "Rows": 936,
        "SAR": 0.06933443860276,
        "SamplesPerPixel": 1,
        "ScanOptions": "FS",
        "ScanningSequence": "EP",
        "SequenceName": "epfid2d1_104",
        "SequenceVariant": [
          "SK",
          "SS"
        ],
        "SeriesDescription": "cmrr_mbepi_s6_2mm_66sl_PA_task-prf",
        "SeriesNumber": 10,
        "SeriesTime": "113615.300000",
        "SliceLocation": -64.177362474653,
        "SliceThickness": 2.0,
        "SmallestImagePixelValue": 0,
        "SoftwareVersions": "syngo MR E11",
        "SpacingBetweenSlices": 2.0000000428902,
        "SpecificCharacterSet": "ISO_IR 100",
        "StudyID": "1",
        "StudyTime": "112402.582000",
        "TransmitCoilName": "Body",
        "VariableFlipAngleFlag": "N",
        "WindowCenterWidthExplanation": "Algo1",
        "dBdt": 0.0
      },
      "slices": {}
    },
    "modality": "bold",
    "run_id": 2,
    "session_id": "nyu3t01",
    "subject_id": "wlsubj114",
    "task_id": "prf",
    "time": {
      "samples": {
        "AcquisitionNumber": [
          1,
          2,
          3,
          4,
          5,
          6,
          7,
          8,
          9,
          10,
          11,
          12,
          13,
          14,
          15,
          16,
          17,
          18,
          19,
          20,
          21,
          22,
          23,
          24,
          25,
          26,
          27,
          28,
          29,
          30,
          31,
          32,
          33,
          34,
          35,
          36,
          37,
          38,
          39,
          40,
          41,
          42,
          43,
          44,
          45,
          46,
          47,
          48,
          49,
          50,
          51,
          52,
          53,
          54,
          55,
          56,
          57,
          58,
          59,
          60,
          61,
          62,
          63,
          64,
          65,
          66,
          67,
          68,
          69,
          70,
          71,
          72,
          73,
          74,
          75,
          76,
          77,
          78,
          79,
          80,
          81,
          82,
          83,
          84,
          85,
          86,
          87,
          88,
          89,
          90,
          91,
          92,
          93,
          94,
          95,
          96,
          97,
          98,
          99,
          100,
          101,
          102,
          103,
          104,
          105,
          106,
          107,
          108,
          109,
          110,
          111,
          112,
          113,
          114,
          115,
          116,
          117,
          118,
          119,
          120,
          121,
          122,
          123,
          124,
          125,
          126,
          127,
          128,
          129,
          130,
          131,
          132,
          133,
          134,
          135,
          136,
          137,
          138,
          139,
          140,
          141,
          142,
          143,
          144,
          145,
          146,
          147,
          148,
          149,
          150,
          151,
          152,
          153,
          154,
          155,
          156,
          157,
          158,
          159,
          160,
          161,
          162,
          163,
          164,
          165,
          166,
          167,
          168,
          169,
          170,
          171,
          172,
          173,
          174,
          175,
          176,
          177,
          178,
          179,
          180,
          181,
          182,
          183,
          184,
          185,
          186,
          187,
          188,
          189,
          190,
          191,
          192
        ],
        "AcquisitionTime": [
          "113455.610000",
          "113456.610000",
          "113457.610000",
          "113458.610000",
          "113459.610000",
          "113500.610000",
          "113501.610000",
          "113502.610000",
          "113503.610000",
          "113504.610000",
          "113505.610000",
          "113506.610000",
          "113507.610000",
          "113508.610000",
          "113509.610000",
          "113510.610000",
          "113511.610000",
          "113512.610000",
          "113513.610000",
          "113514.610000",
          "113515.610000",
          "113516.610000",
          "113517.610000",
          "113518.610000",
          "113519.610000",
          "113520.610000",
          "113521.610000",
          "113522.610000",
          "113523.610000",
          "113524.610000",
          "113525.610000",
          "113526.610000",
          "113527.610000",
          "113528.610000",
          "113529.610000",
          "113530.610000",
          "113531.610000",
          "113532.610000",
          "113533.610000",
          "113534.610000",
          "113535.610000",
          "113536.610000",
          "113537.610000",
          "113538.610000",
          "113539.610000",
          "113540.610000",
          "113541.610000",
          "113542.610000",
          "113543.610000",
          "113544.610000",
          "113545.610000",
          "113546.610000",
          "113547.610000",
          "113548.610000",
          "113549.610000",
          "113550.610000",
          "113551.610000",
          "113552.610000",
          "113553.610000",
          "113554.610000",
          "113555.610000",
          "113556.610000",
          "113557.610000",
          "113558.610000",
          "113559.610000",
          "113600.610000",
          "113601.610000",
          "113602.610000",
          "113603.610000",
          "113604.610000",
          "113605.610000",
          "113606.610000",
          "113607.610000",
          "113608.610000",
          "113609.610000",
          "113610.610000",
          "113611.610000",
          "113612.610000",
          "113613.610000",
          "113614.610000",
          "113615.610000",
          "113616.610000",
          "113617.610000",
          "113618.610000",
          "113619.610000",
          "113620.610000",
          "113621.610000",
          "113622.610000",
          "113623.610000",
          "113624.610000",
          "113625.610000",
          "113626.610000",
          "113627.610000",
          "113628.610000",
          "113629.610000",
          "113630.610000",
          "113631.610000",
          "113632.610000",
          "113633.610000",
          "113634.610000",
          "113635.610000",
          "113636.610000",
          "113637.610000",
          "113638.610000",
          "113639.610000",
          "113640.610000",
          "113641.610000",
          "113642.610000",
          "113643.610000",
          "113644.610000",
          "113645.610000",
          "113646.610000",
          "113647.610000",
          "113648.610000",
          "113649.610000",
          "113650.610000",
          "113651.610000",
          "113652.610000",
          "113653.610000",
          "113654.610000",
          "113655.610000",
          "113656.610000",
          "113657.610000",
          "113658.610000",
          "113659.610000",
          "113700.610000",
          "113701.610000",
          "113702.610000",
          "113703.610000",
          "113704.610000",
          "113705.610000",
          "113706.610000",
          "113707.610000",
          "113708.610000",
          "113709.610000",
          "113710.610000",
          "113711.610000",
          "113712.610000",
          "113713.610000",
          "113714.610000",
          "113715.610000",
          "113716.610000",
          "113717.610000",
          "113718.610000",
          "113719.610000",
          "113720.610000",
          "113721.610000",
          "113722.610000",
          "113723.610000",
          "113724.610000",
          "113725.610000",
          "113726.610000",
          "113727.610000",
          "113728.610000",
          "113729.610000",
          "113730.610000",
          "113731.610000",
          "113732.610000",
          "113733.610000",
          "113734.610000",
          "113735.610000",
          "113736.610000",
          "113737.610000",
          "113738.610000",
          "113739.610000",
          "113740.610000",
          "113741.610000",
          "113742.610000",
          "113743.610000",
          "113744.610000",
          "113745.610000",
          "113746.610000",
          "113747.610000",
          "113748.610000",
          "113749.610000",
          "113750.610000",
          "113751.610000",
          "113752.610000",
          "113753.610000",
          "113754.610000",
          "113755.610000",
          "113756.610000",
          "113757.610000",
          "113758.610000",
          "113759.610000",
          "113800.610000",
          "113801.610000",
          "113802.610000",
          "113803.610000",
          "113804.610000",
          "113805.610000",
          "113806.610000"
        ],
        "ContentTime": [
          "113615.302000",
          "113615.305000",
          "113615.308000",
          "113615.311000",
          "113615.314000",
          "113615.320000",
          "113615.323000",
          "113615.325000",
          "113615.328000",
          "113615.331000",
          "113615.334000",
          "113615.337000",
          "113615.340000",
          "113615.343000",
          "113615.346000",
          "113615.349000",
          "113615.352000",
          "113615.356000",
          "113615.359000",
          "113615.362000",
          "113615.365000",
          "113615.368000",
          "113615.371000",
          "113615.374000",
          "113615.377000",
          "113615.380000",
          "113615.382000",
          "113615.385000",
          "113615.388000",
          "113615.391000",
          "113615.394000",
          "113615.397000",
          "113615.400000",
          "113615.403000",
          "113615.410000",
          "113635.274000",
          "113635.277000",
          "113635.280000",
          "113635.283000",
          "113635.285000",
          "113635.288000",
          "113635.291000",
          "113635.294000",
          "113635.297000",
          "113635.300000",
          "113635.303000",
          "113635.305000",
          "113635.308000",
          "113635.311000",
          "113635.314000",
          "113635.317000",
          "113635.320000",
          "113635.323000",
          "113635.326000",
          "113635.328000",
          "113635.331000",
          "113635.334000",
          "113635.337000",
          "113635.340000",
          "113635.343000",
          "113635.346000",
          "113635.349000",
          "113635.351000",
          "113635.354000",
          "113655.274000",
          "113655.277000",
          "113655.280000",
          "113655.283000",
          "113655.286000",
          "113655.289000",
          "113655.291000",
          "113655.294000",
          "113655.297000",
          "113655.300000",
          "113655.303000",
          "113655.306000",
          "113655.309000",
          "113655.312000",
          "113655.315000",
          "113655.317000",
          "113655.320000",
          "113655.323000",
          "113655.330000",
          "113655.333000",
          "113655.336000",
          "113655.339000",
          "113655.341000",
          "113655.344000",
          "113655.347000",
          "113655.350000",
          "113655.353000",
          "113655.356000",
          "113715.274000",
          "113715.277000",
          "113715.280000",
          "113715.282000",
          "113715.309000",
          "113715.312000",
          "113715.315000",
          "113715.318000",
          "113715.321000",
          "113715.324000",
          "113715.326000",
          "113715.329000",
          "113715.339000",
          "113715.342000",
          "113715.344000",
          "113715.347000",
          "113715.350000",
          "113715.353000",
          "113715.356000",
          "113715.359000",
          "113715.362000",
          "113715.365000",
          "113715.368000",
          "113715.370000",
          "113715.373000",
          "113715.376000",
          "113715.379000",
          "113715.382000",
          "113735.274000",
          "113735.277000",
          "113735.280000",
          "113735.283000",
          "113735.285000",
          "113735.288000",
          "113735.291000",
          "113735.294000",
          "113735.297000",
          "113735.300000",
          "113735.303000",
          "113735.306000",
          "113735.309000",
          "113735.311000",
          "113735.314000",
          "113735.317000",
          "113735.320000",
          "113735.323000",
          "113735.326000",
          "113735.329000",
          "113735.331000",
          "113735.334000",
          "113735.337000",
          "113735.340000",
          "113735.343000",
          "113735.346000",
          "113735.349000",
          "113735.351000",
          "113755.273000",
          "113755.276000",
          "113755.279000",
          "113755.282000",
          "113755.285000",
          "113755.287000",
          "113755.290000",
          "113755.293000",
          "113755.296000",
          "113755.299000",
          "113755.302000",
          "113755.305000",
          "113755.308000",
          "113755.310000",
          "113755.313000",
          "113755.316000",
          "113755.319000",
          "113755.322000",
          "113755.325000",
          "113755.344000",
          "113755.346000",
          "113755.349000",
          "113755.352000",
          "113755.355000",
          "113755.358000",
          "113755.361000",
          "113755.364000",
          "113755.366000",
          "113807.819000",
          "113807.822000",
          "113807.825000",
          "113807.828000",
          "113807.831000",
          "113807.834000",
          "113807.836000",
          "113807.839000",
          "113807.842000",
          "113807.845000",
          "113807.848000",
          "113807.851000",
          "113807.854000",
          "113807.857000",
          "113807.859000",
          "113807.862000"
        ],
        "InstanceCreationTime": [
          "113615.302000",
          "113615.305000",
          "113615.308000",
          "113615.311000",
          "113615.314000",
          "113615.320000",
          "113615.323000",
          "113615.325000",
          "113615.328000",
          "113615.331000",
          "113615.334000",
          "113615.337000",
          "113615.340000",
          "113615.343000",
          "113615.346000",
          "113615.349000",
          "113615.352000",
          "113615.356000",
          "113615.359000",
          "113615.362000",
          "113615.365000",
          "113615.368000",
          "113615.371000",
          "113615.374000",
          "113615.377000",
          "113615.380000",
          "113615.382000",
          "113615.385000",
          "113615.388000",
          "113615.391000",
          "113615.394000",
          "113615.397000",
          "113615.400000",
          "113615.403000",
          "113615.410000",
          "113635.274000",
          "113635.277000",
          "113635.280000",
          "113635.283000",
          "113635.285000",
          "113635.288000",
          "113635.291000",
          "113635.294000",
          "113635.297000",
          "113635.300000",
          "113635.303000",
          "113635.305000",
          "113635.308000",
          "113635.311000",
          "113635.314000",
          "113635.317000",
          "113635.320000",
          "113635.323000",
          "113635.326000",
          "113635.328000",
          "113635.331000",
          "113635.334000",
          "113635.337000",
          "113635.340000",
          "113635.343000",
          "113635.346000",
          "113635.349000",
          "113635.351000",
          "113635.354000",
          "113655.274000",
          "113655.277000",
          "113655.280000",
          "113655.283000",
          "113655.286000",
          "113655.289000",
          "113655.291000",
          "113655.294000",
          "113655.297000",
          "113655.300000",
          "113655.303000",
          "113655.306000",
          "113655.309000",
          "113655.312000",
          "113655.315000",
          "113655.317000",
          "113655.320000",
          "113655.323000",
          "113655.330000",
          "113655.333000",
          "113655.336000",
          "113655.339000",
          "113655.341000",
          "113655.344000",
          "113655.347000",
          "113655.350000",
          "113655.353000",
          "113655.356000",
          "113715.274000",
          "113715.277000",
          "113715.280000",
          "113715.282000",
          "113715.309000",
          "113715.312000",
          "113715.315000",
          "113715.318000",
          "113715.321000",
          "113715.324000",
          "113715.326000",
          "113715.329000",
          "113715.339000",
          "113715.342000",
          "113715.344000",
          "113715.347000",
          "113715.350000",
          "113715.353000",
          "113715.356000",
          "113715.359000",
          "113715.362000",
          "113715.365000",
          "113715.368000",
          "113715.370000",
          "113715.373000",
          "113715.376000",
          "113715.379000",
          "113715.382000",
          "113735.274000",
          "113735.277000",
          "113735.280000",
          "113735.283000",
          "113735.285000",
          "113735.288000",
          "113735.291000",
          "113735.294000",
          "113735.297000",
          "113735.300000",
          "113735.303000",
          "113735.306000",
          "113735.309000",
          "113735.311000",
          "113735.314000",
          "113735.317000",
          "113735.320000",
          "113735.323000",
          "113735.326000",
          "113735.329000",
          "113735.331000",
          "113735.334000",
          "113735.337000",
          "113735.340000",
          "113735.343000",
          "113735.346000",
          "113735.349000",
          "113735.351000",
          "113755.273000",
          "113755.276000",
          "113755.279000",
          "113755.282000",
          "113755.285000",
          "113755.287000",
          "113755.290000",
          "113755.293000",
          "113755.296000",
          "113755.299000",
          "113755.302000",
          "113755.305000",
          "113755.308000",
          "113755.310000",
          "113755.313000",
          "113755.316000",
          "113755.319000",
          "113755.322000",
          "113755.325000",
          "113755.344000",
          "113755.346000",
          "113755.349000",
          "113755.352000",
          "113755.355000",
          "113755.358000",
          "113755.361000",
          "113755.364000",
          "113755.366000",
          "113807.819000",
          "113807.822000",
          "113807.825000",
          "113807.828000",
          "113807.831000",
          "113807.834000",
          "113807.836000",
          "113807.839000",
          "113807.842000",
          "113807.845000",
          "113807.848000",
          "113807.851000",
          "113807.854000",
          "113807.857000",
          "113807.859000",
          "113807.862000"
        ],
        "InstanceNumber": [
          1,
          2,
          3,
          4,
          5,
          6,
          7,
          8,
          9,
          10,
          11,
          12,
          13,
          14,
          15,
          16,
          17,
          18,
          19,
          20,
          21,
          22,
          23,
          24,
          25,
          26,
          27,
          28,
          29,
          30,
          31,
          32,
          33,
          34,
          35,
          36,
          37,
          38,
          39,
          40,
          41,
          42,
          43,
          44,
          45,
          46,
          47,
          48,
          49,
          50,
          51,
          52,
          53,
          54,
          55,
          56,
          57,
          58,
          59,
          60,
          61,
          62,
          63,
          64,
          65,
          66,
          67,
          68,
          69,
          70,
          71,
          72,
          73,
          74,
          75,
          76,
          77,
          78,
          79,
          80,
          81,
          82,
          83,
          84,
          85,
          86,
          87,
          88,
          89,
          90,
          91,
          92,
          93,
          94,
          95,
          96,
          97,
          98,
          99,
          100,
          101,
          102,
          103,
          104,
          105,
          106,
          107,
          108,
          109,
          110,
          111,
          112,
          113,
          114,
          115,
          116,
          117,
          118,
          119,
          120,
          121,
          122,
          123,
          124,
          125,
          126,
          127,
          128,
          129,
          130,
          131,
          132,
          133,
          134,
          135,
          136,
          137,
          138,
          139,
          140,
          141,
          142,
          143,
          144,
          145,
          146,
          147,
          148,
          149,
          150,
          151,
          152,
          153,
          154,
          155,
          156,
          157,
          158,
          159,
          160,
          161,
          162,
          163,
          164,
          165,
          166,
          167,
          168,
          169,
          170,
          171,
          172,
          173,
          174,
          175,
          176,
          177,
          178,
          179,
          180,
          181,
          182,
          183,
          184,
          185,
          186,
          187,
          188,
          189,
          190,
          191,
          192
        ],
        "LargestImagePixelValue": [
          36465,
          35353,
          34778,
          34478,
          33667,
          33185,
          33667,
          34530,
          34016,
          33936,
          34001,
          33023,
          33855,
          33897,
          33654,
          33794,
          33720,
          33187,
          34103,
          33363,
          34195,
          33794,
          34065,
          32816,
          33623,
          33721,
          33720,
          33980,
          33542,
          34150,
          33404,
          33899,
          33551,
          32806,
          33764,
          33851,
          33638,
          33547,
          33205,
          34119,
          32873,
          33175,
          33279,
          34214,
          33744,
          33575,
          33414,
          33040,
          33547,
          32994,
          33113,
          33490,
          33326,
          33525,
          33567,
          33526,
          33884,
          33345,
          33678,
          33629,
          33340,
          33707,
          33306,
          33507,
          33316,
          33830,
          33662,
          33629,
          33309,
          33094,
          33529,
          32792,
          33332,
          33252,
          33219,
          33263,
          33488,
          33257,
          33000,
          33251,
          32528,
          33586,
