{
  "AcquisitionMatrixPE": 104,
  "AcquisitionNumber": 1,
  "AcquisitionTime": "11:54:38.470000",
  "BandwidthPerPixelPhaseEncode": 16.578,
  "BaseResolution": 104,
  "BodyPartExamined": "BRAIN",
  "ConsistencyInfo": "N4_VE11C_LATEST_20160120",
  "ConversionSoftware": "dcm2niix",
  "ConversionSoftwareVersion": "v1.0.20190902",
  "DerivedVendorReportedEchoSpacing": 0.000580009,
  "DeviceSerialNumber": "166018",
  "DwellTime": 2.1e-06,
  "EchoTime": 0.037,
  "EchoTrainLength": 104,
  "EffectiveEchoSpacing": 0.000580009,
  "FlipAngle": 68,
  "ImageComments": "Unaliased_MB6_PE3_LB",
  "ImageOrientationPatientDICOM": [0.997454, 0.0494553, 0.0513702, -0.0355291, 0.9693, -0.2433],
  "ImageType": [
    "ORIGINAL",
    "PRIMARY",
    "M",
    "MB",
    "ND",
    "MOSAIC"
],
  "ImagingFrequency": 123.191,
  "InPlanePhaseEncodingDirectionDICOM": "COL",
  "InstitutionAddress": "Washington_Place_6_NYC_NYC_US_10003",
  "InstitutionName": "NYU_-_CBI",
  "InstitutionalDepartmentName": "Department",
  "MRAcquisitionType": "2D",
  "MagneticFieldStrength": 3,
  "Manufacturer": "Siemens",
  "ManufacturersModelName": "Prisma",
  "Modality": "MR",
  "MultibandAccelerationFactor": 6,
  "PartialFourier": 1,
  "PatientPosition": "HFS",
  "PercentPhaseFOV": 100,
  "PhaseEncodingDirection": "j",
  "PhaseEncodingSteps": 104,
  "PhaseResolution": 1,
  "PixelBandwidth": 2290,
  "ProcedureStepDescription": "Investigators_Winawer",
  "ProtocolName": "cmrr_mbepi_s6_2mm_66sl_PA_task-prf",
  "PulseSequenceDetails": "%CustomerSeq%_cmrr_mbep2d_bold",
  "ReceiveCoilActiveElements": "HC1-7",
  "ReceiveCoilName": "HeadNeck_64",
  "ReconMatrixPE": 104,
  "RepetitionTime": 1,
  "SAR": 0.0890984,
  "ScanOptions": "FS",
  "ScanningSequence": "EP",
  "SequenceName": "epfid2d1_104",
  "SequenceVariant": "SK_SS",
  "SeriesDescription": "cmrr_mbepi_s6_2mm_66sl_PA_task-prf",
  "SeriesNumber": 16,
  "ShimSetting": [284, -12595, -8423, 298, -9, -94, 25, 46],
  "SliceThickness": 2,
  "SliceTiming": [0, 0.535, 0.09, 0.625, 0.18, 0.7125, 0.2675, 0.8025, 0.3575, 0.8925, 0.4475, 0, 0.535, 0.09, 0.625, 0.18, 0.7125, 0.2675, 0.8025, 0.3575, 0.8925, 0.4475, 0, 0.535, 0.09, 0.625, 0.18, 0.7125, 0.2675, 0.8025, 0.3575, 0.8925, 0.4475, 0, 0.535, 0.09, 0.625, 0.18, 0.7125, 0.2675, 0.8025, 0.3575, 0.8925, 0.4475, 0, 0.535, 0.09, 0.625, 0.18, 0.7125, 0.2675, 0.8025, 0.3575, 0.8925, 0.4475, 0, 0.535, 0.09, 0.625, 0.18, 0.7125, 0.2675, 0.8025, 0.3575, 0.8925, 0.4475],
  "SoftwareVersions": "syngo_MR_E11",
  "SpacingBetweenSlices": 2,
  "StationName": "AWP166018",
  "TaskName": "prf",
  "TotalReadoutTime": 0.0597409,
  "TxRefAmp": 256.678,
  "WipMemBlock": "cd89f708-a4ed-4756-bef9-2ea59794eb23||Sequence: R016 ve11c/master r/8780670; Nov 27 2017 15:05:12 by eja",
  "dcmmeta_affine": [
    [-1.9949088096618652, -0.07105818390846252, 0.12365120649337769, 110.35638427734375],
    [-0.09891056269407272, 1.9386004209518433, -0.481710821390152, -69.56803894042969],
    [0.10274039208889008, 0.48659980297088623, 1.937179684638977, -62.84848403930664],
    [0.0, 0.0, 0.0, 1.0]
],
  "dcmmeta_reorient_transform": [
    [0.0, -1.0, 0.0, 103.0],
    [1.0, 0.0, 0.0, 0.0],
    [0.0, 0.0, 1.0, 0.0],
    [0.0, 0.0, 0.0, 1.0]
],
  "dcmmeta_shape": [104, 104, 66, 192],
  "dcmmeta_slice_dim": 2,
  "dcmmeta_version": 0.6,
  "global": {
    "const": {
      "AccessionNumber": "ju9s08kb",
      "AcquisitionMatrix": [104, 0, 0, 104],
      "AngioFlag": "N",
      "BitsAllocated": 16,
      "BitsStored": 16,
      "BodyPartExamined": "BRAIN",
      "Columns": 936,
      "EchoNumbers": 1,
      "EchoTime": 37.0,
      "EchoTrainLength": 104,
      "FlipAngle": 68.0,
      "HighBit": 15,
      "ImageOrientationPatient": [0.99745439915999, 0.04945528005028, 0.05137019438873, -0.0355290918762, 0.96930018254229, -0.2432998967405],
      "ImagePositionPatient": [-903.35924447605, -977.71234717854, 146.95680549671],
      "ImageType": [
        "ORIGINAL",
        "PRIMARY",
        "M",
        "MB",
        "ND",
        "MOSAIC"
],
      "ImagedNucleus": "1H",
      "ImagingFrequency": 123.190985,
      "InPlanePhaseEncodingDirection": "COL",
      "MRAcquisitionType": "2D",
      "MagneticFieldStrength": 3.0,
      "Manufacturer": "SIEMENS",
      "ManufacturerModelName": "Prisma",
      "Modality": "MR",
      "NumberOfAverages": 1.0,
      "NumberOfPhaseEncodingSteps": 104,
      "PercentPhaseFieldOfView": 100.0,
      "PercentSampling": 100.0,
      "PerformedProcedureStepStartTime": "112027.521000",
      "PhotometricInterpretation": "MONOCHROME2",
      "PixelBandwidth": 2290.0,
      "PixelRepresentation": 0,
      "PixelSpacing": [2.0, 2.0],
      "ProtocolName": "cmrr_mbepi_s6_2mm_66sl_PA_task-prf",
      "RepetitionTime": 1000.0,
      "Rows": 936,
      "SAR": 0.0890984105316,
      "SamplesPerPixel": 1,
      "ScanOptions": "FS",
      "ScanningSequence": "EP",
      "SequenceName": "epfid2d1_104",
      "SequenceVariant": [
        "SK",
        "SS"
],
      "SeriesDescription": "cmrr_mbepi_s6_2mm_66sl_PA_task-prf",
      "SeriesNumber": 16,
      "SeriesTime": "115539.024000",
      "SliceLocation": -37.295716158282,
      "SliceThickness": 2.0,
      "SmallestImagePixelValue": 0,
      "SoftwareVersions": "syngo MR E11",
      "SpacingBetweenSlices": 1.9999999633369,
      "SpecificCharacterSet": "ISO_IR 100",
      "StudyID": "1",
      "StudyTime": "112027.455000",
      "TransmitCoilName": "Body",
      "VariableFlipAngleFlag": "N",
      "WindowCenterWidthExplanation": "Algo1",
      "dBdt": 0.0},
    "slices": {}
  },
  "time": {
    "samples": {
      "AcquisitionNumber": [1, 2, 3, 4, 5, 6, 7, 8, 9, 10, 11, 12, 13, 14, 15, 16, 17, 18, 19, 20, 21, 22, 23, 24, 25, 26, 27, 28, 29, 30, 31, 32, 33, 34, 35, 36, 37, 38, 39, 40, 41, 42, 43, 44, 45, 46, 47, 48, 49, 50, 51, 52, 53, 54, 55, 56, 57, 58, 59, 60, 61, 62, 63, 64, 65, 66, 67, 68, 69, 70, 71, 72, 73, 74, 75, 76, 77, 78, 79, 80, 81, 82, 83, 84, 85, 86, 87, 88, 89, 90, 91, 92, 93, 94, 95, 96, 97, 98, 99, 100, 101, 102, 103, 104, 105, 106, 107, 108, 109, 110, 111, 112, 113, 114, 115, 116, 117, 118, 119, 120, 121, 122, 123, 124, 125, 126, 127, 128, 129, 130, 131, 132, 133, 134, 135, 136, 137, 138, 139, 140, 141, 142, 143, 144, 145, 146, 147, 148, 149, 150, 151, 152, 153, 154, 155, 156, 157, 158, 159, 160, 161, 162, 163, 164, 165, 166, 167, 168, 169, 170, 171, 172, 173, 174, 175, 176, 177, 178, 179, 180, 181, 182, 183, 184, 185, 186, 187, 188, 189, 190, 191, 192],
      "AcquisitionTime": ["115438.470000", "115439.470000", "115440.470000", "115441.470000", "115442.470000", "115443.470000", "115444.470000", "115445.470000", "115446.470000", "115447.470000", "115448.470000", "115449.470000", "115450.470000", "115451.470000", "115452.470000", "115453.470000", "115454.470000", "115455.470000", "115456.470000", "115457.470000", "115458.470000", "115459.470000", "115500.470000", "115501.470000", "115502.470000", "115503.470000", "115504.470000", "115505.470000", "115506.470000", "115507.470000", "115508.470000", "115509.470000", "115510.470000", "115511.470000", "115512.470000", "115513.470000", "115514.470000", "115515.470000", "115516.470000", "115517.470000", "115518.470000", "115519.470000", "115520.470000", "115521.470000", "115522.470000", "115523.470000", "115524.470000", "115525.470000", "115526.470000", "115527.470000", "115528.470000", "115529.470000", "115530.470000", "115531.470000", "115532.470000", "115533.470000", "115534.470000", "115535.470000", "115536.470000", "115537.470000", "115538.470000", "115539.470000", "115540.470000", "115541.470000", "115542.470000", "115543.470000", "115544.470000", "115545.470000", "115546.470000", "115547.470000", "115548.470000", "115549.470000", "115550.470000", "115551.470000", "115552.470000", "115553.470000", "115554.470000", "115555.470000", "115556.470000", "115557.470000", "115558.470000", "115559.470000", "115600.470000", "115601.470000", "115602.470000", "115603.470000", "115604.470000", "115605.470000", "115606.470000", "115607.470000", "115608.470000", "115609.470000", "115610.470000", "115611.470000", "115612.470000", "115613.470000", "115614.470000", "115615.470000", "115616.470000", "115617.470000", "115618.470000", "115619.470000", "115620.470000", "115621.470000", "115622.470000", "115623.470000", "115624.470000", "115625.470000", "115626.470000", "115627.470000", "115628.470000", "115629.470000", "115630.470000", "115631.470000", "115632.470000", "115633.470000", "115634.470000", "115635.470000", "115636.470000", "115637.470000", "115638.470000", "115639.470000", "115640.470000", "115641.470000", "115642.470000", "115643.470000", "115644.470000", "115645.470000", "115646.470000", "115647.470000", "115648.470000", "115649.470000", "115650.470000", "115651.470000", "115652.470000", "115653.470000", "115654.470000", "115655.470000", "115656.470000", "115657.470000", "115658.470000", "115659.470000", "115700.470000", "115701.470000", "115702.470000", "115703.470000", "115704.470000", "115705.470000", "115706.470000", "115707.470000", "115708.470000", "115709.470000", "115710.470000", "115711.470000", "115712.470000", "115713.470000", "115714.470000", "115715.470000", "115716.470000", "115717.470000", "115718.470000", "115719.470000", "115720.470000", "115721.470000", "115722.470000", "115723.470000", "115724.470000", "115725.470000", "115726.470000", "115727.470000", "115728.470000", "115729.470000", "115730.470000", "115731.470000", "115732.470000", "115733.470000", "115734.470000", "115735.470000", "115736.470000", "115737.470000", "115738.470000", "115739.470000", "115740.470000", "115741.470000", "115742.470000", "115743.470000", "115744.470000", "115745.470000", "115746.470000", "115747.470000", "115748.470000", "115749.470000"],
      "ContentTime": ["115539.027000", "115539.030000", "115539.033000", "115539.036000", "115539.039000", "115539.042000", "115539.054000", "115544.025000", "115544.028000", "115544.031000", "115544.034000", "115544.037000", "115544.040000", "115544.053000", "115549.026000", "115549.029000", "115549.041000", "115549.044000", "115549.047000", "115549.050000", "115549.063000", "115554.026000", "115554.029000", "115554.032000", "115554.035000", "115554.038000", "115554.041000", "115554.044000", "115559.025000", "115559.028000", "115559.031000", "115559.034000", "115559.043000", "115559.046000", "115559.049000", "115604.025000", "115604.028000", "115604.031000", "115604.034000", "115604.038000", "115604.041000", "115604.044000", "115609.026000", "115609.029000", "115609.032000", "115609.035000", "115609.038000", "115609.041000", "115609.044000", "115614.025000", "115614.028000", "115614.031000", "115614.034000", "115614.037000", "115614.040000", "115614.043000", "115619.025000", "115619.028000", "115619.031000", "115619.034000", "115619.037000", "115619.040000", "115619.043000", "115624.026000", "115624.029000", "115624.032000", "115624.035000", "115624.038000", "115624.041000", "115624.044000", "115629.026000", "115629.029000", "115629.033000", "115629.052000", "115629.055000", "115629.058000", "115629.061000", "115634.025000", "115634.028000", "115634.031000", "115634.034000", "115634.037000", "115634.040000", "115634.043000", "115639.025000", "115639.028000", "115639.031000", "115639.034000", "115639.037000", "115639.040000", "115639.043000", "115644.026000", "115644.029000", "115644.032000", "115644.035000", "115644.038000", "115644.041000", "115644.044000", "115649.025000", "115649.028000", "115649.031000", "115649.034000", "115649.037000", "115649.040000", "115649.043000", "115654.025000", "115654.028000", "115654.031000", "115654.034000", "115654.037000", "115654.040000", "115654.043000", "115659.026000", "115659.029000", "115659.032000", "115659.035000", "115659.038000", "115659.041000", "115659.044000", "115704.026000", "115704.029000", "115704.032000", "115704.035000", "115704.040000", "115704.043000", "115704.046000", "115709.025000", "115709.028000", "115709.031000", "115709.034000", "115709.037000", "115709.040000", "115709.043000", "115714.025000", "115714.028000", "115714.031000", "115714.034000", "115714.037000", "115714.040000", "115714.043000", "115719.026000", "115719.029000", "115719.032000", "115719.035000", "115719.038000", "115719.041000", "115719.044000", "115724.025000", "115724.028000", "115724.031000", "115724.034000", "115724.037000", "115724.040000", "115724.043000", "115729.025000", "115729.028000", "115729.031000", "115729.034000", "115729.037000", "115729.040000", "115729.043000", "115729.046000", "115734.026000", "115734.029000", "115734.032000", "115734.035000", "115734.038000", "115734.041000", "115734.044000", "115739.026000", "115739.029000", "115739.032000", "115739.035000", "115739.039000", "115739.042000", "115744.025000", "115744.028000", "115744.031000", "115744.034000", "115744.037000", "115744.040000", "115744.043000", "115744.046000", "115749.025000", "115749.028000", "115749.031000", "115749.034000", "115749.037000", "115749.040000", "115751.382000", "115751.386000", "115751.389000"],
      "InstanceCreationTime": ["115539.027000", "115539.030000", "115539.033000", "115539.036000", "115539.039000", "115539.042000", "115539.054000", "115544.025000", "115544.028000", "115544.031000", "115544.034000", "115544.037000", "115544.040000", "115544.053000", "115549.026000", "115549.029000", "115549.041000", "115549.044000", "115549.047000", "115549.050000", "115549.063000", "115554.026000", "115554.029000", "115554.032000", "115554.035000", "115554.038000", "115554.041000", "115554.044000", "115559.025000", "115559.028000", "115559.031000", "115559.034000", "115559.043000", "115559.046000", "115559.049000", "115604.025000", "115604.028000", "115604.031000", "115604.034000", "115604.038000", "115604.041000", "115604.044000", "115609.026000", "115609.029000", "115609.032000", "115609.035000", "115609.038000", "115609.041000", "115609.044000", "115614.025000", "115614.028000", "115614.031000", "115614.034000", "115614.037000", "115614.040000", "115614.043000", "115619.025000", "115619.028000", "115619.031000", "115619.034000", "115619.037000", "115619.040000", "115619.043000", "115624.026000", "115624.029000", "115624.032000", "115624.035000", "115624.038000", "115624.041000", "115624.044000", "115629.026000", "115629.029000", "115629.033000", "115629.052000", "115629.055000", "115629.058000", "115629.061000", "115634.025000", "115634.028000", "115634.031000", "115634.034000", "115634.037000", "115634.040000", "115634.043000", "115639.025000", "115639.028000", "115639.031000", "115639.034000", "115639.037000", "115639.040000", "115639.043000", "115644.026000", "115644.029000", "115644.032000", "115644.035000", "115644.038000", "115644.041000", "115644.044000", "115649.025000", "115649.028000", "115649.031000", "115649.034000", "115649.037000", "115649.040000", "115649.043000", "115654.025000", "115654.028000", "115654.031000", "115654.034000", "115654.037000", "115654.040000", "115654.043000", "115659.026000", "115659.029000", "115659.032000", "115659.035000", "115659.038000", "115659.041000", "115659.044000", "115704.026000", "115704.029000", "115704.032000", "115704.035000", "115704.040000", "115704.043000", "115704.046000", "115709.025000", "115709.028000", "115709.031000", "115709.034000", "115709.037000", "115709.040000", "115709.043000", "115714.025000", "115714.028000", "115714.031000", "115714.034000", "115714.037000", "115714.040000", "115714.043000", "115719.026000", "115719.029000", "115719.032000", "115719.035000", "115719.038000", "115719.041000", "115719.044000", "115724.025000", "115724.028000", "115724.031000", "115724.034000", "115724.037000", "115724.040000", "115724.043000", "115729.025000", "115729.028000", "115729.031000", "115729.034000", "115729.037000", "115729.040000", "115729.043000", "115729.046000", "115734.026000", "115734.029000", "115734.032000", "115734.035000", "115734.038000", "115734.041000", "115734.044000", "115739.026000", "115739.029000", "115739.032000", "115739.035000", "115739.039000", "115739.042000", "115744.025000", "115744.028000", "115744.031000", "115744.034000", "115744.037000", "115744.040000", "115744.043000", "115744.046000", "115749.025000", "115749.028000", "115749.031000", "115749.034000", "115749.037000", "115749.040000", "115751.382000", "115751.386000", "115751.389000"],
      "InstanceNumber": [1, 2, 3, 4, 5, 6, 7, 8, 9, 10, 11, 12, 13, 14, 15, 16, 17, 18, 19, 20, 21, 22, 23, 24, 25, 26, 27, 28, 29, 30, 31, 32, 33, 34, 35, 36, 37, 38, 39, 40, 41, 42, 43, 44, 45, 46, 47, 48, 49, 50, 51, 52, 53, 54, 55, 56, 57, 58, 59, 60, 61, 62, 63, 64, 65, 66, 67, 68, 69, 70, 71, 72, 73, 74, 75, 76, 77, 78, 79, 80, 81, 82, 83, 84, 85, 86, 87, 88, 89, 90, 91, 92, 93, 94, 95, 96, 97, 98, 99, 100, 101, 102, 103, 104, 105, 106, 107, 108, 109, 110, 111, 112, 113, 114, 115, 116, 117, 118, 119, 120, 121, 122, 123, 124, 125, 126, 127, 128, 129, 130, 131, 132, 133, 134, 135, 136, 137, 138, 139, 140, 141, 142, 143, 144, 145, 146, 147, 148, 149, 150, 151, 152, 153, 154, 155, 156, 157, 158, 159, 160, 161, 162, 163, 164, 165, 166, 167, 168, 169, 170, 171, 172, 173, 174, 175, 176, 177, 178, 179, 180, 181, 182, 183, 184, 185, 186, 187, 188, 189, 190, 191, 192],
      "LargestImagePixelValue": [33753, 33008, 32309, 32399, 32050, 31634, 31746, 32471, 31813, 31570, 32058, 31910, 32360, 31914, 32371, 31305, 31813, 33777, 32846, 32316, 32532, 33422, 31700, 31391, 32706, 31827, 31659, 35672, 34850, 33822, 32588, 34340, 33084, 32692, 32054, 32026, 31702, 31990, 31634, 31993, 31885, 31637, 31517, 32837, 31833, 32138, 32642, 33803, 33284, 33824, 31984, 31888, 31677, 32084, 32011, 31778, 31905, 32198, 33780, 33868, 32937, 33869, 32548, 31834, 31820, 31668, 31228, 31738, 31848, 32030, 31968, 32397, 32121, 31795, 31573, 31245, 32128, 32202, 31097, 31724, 32123, 31749, 31491, 31915, 31972, 31858, 31975, 31833, 31908, 31807, 32136, 31764, 31616, 31896, 32469, 32360, 32712, 31939, 32239, 32266, 32062, 32042, 32290, 31758, 31730, 31595, 32825, 32301, 31953, 31988, 31938, 32417, 36143, 34220, 32287, 32826, 31470, 31542, 31570, 31679, 31559, 31625, 31821, 31761, 31879, 31923, 31925, 32043, 31808, 31726, 31455, 31441, 31510, 31637, 31743, 31900, 31487, 31713, 32075, 31906, 31553, 31627, 31524, 31587, 31639, 31915, 31633, 32294, 33323, 31991, 31618, 31722, 32014, 31802, 31842, 31527, 31836, 31529, 31799, 33410, 32023, 32722, 34569, 32174, 32419, 32801, 32107, 31994, 31890, 31645, 34632, 31874, 31818, 31770, 31669, 31327, 31843, 31358, 31487, 31827, 31509, 31441, 31911, 31983, 32336, 31835, 31447, 31426, 31410, 31088, 31287, 30683],
      "WindowCenter": [9704.0, 9667.0, 9669.0, 9669.0, 9672.0, 9680.0, 9674.0, 9689.0, 9708.0, 9714.0, 9720.0, 9719.0, 9717.0, 9701.0, 9699.0, 9679.0, 9696.0, 9746.0, 9763.0, 9751.0, 9741.0, 9725.0, 9691.0, 9653.0, 9709.0, 9665.0, 9602.0, 9742.0, 9727.0, 9706.0, 9682.0, 9663.0, 9661.0, 9682.0, 9664.0, 9649.0, 9643.0, 9657.0, 9659.0, 9666.0, 9668.0, 9659.0, 9636.0, 9658.0, 9647.0, 9643.0, 9660.0, 9696.0, 9705.0, 9712.0, 9682.0, 9674.0, 9667.0, 9648.0, 9656.0, 9647.0, 9652.0, 9674.0, 9711.0, 9731.0, 9730.0, 9734.0, 9698.0, 9688.0, 9679.0, 9677.0, 9669.0, 9676.0, 9683.0, 9692.0, 9712.0, 9718.0, 9703.0, 9688.0, 9681.0, 9671.0, 9678.0, 9674.0, 9655.0, 9666.0, 9672.0, 9675.0, 9669.0, 9674.0, 9675.0, 9676.0, 9681.0, 9677.0, 9685.0, 9685.0, 9684.0, 9678.0, 9663.0, 9685.0, 9692.0, 9694.0, 9696.0, 9690.0, 9689.0, 9690.0, 9680.0, 9683.0, 9698.0, 9695.0, 9695.0, 9677.0, 9701.0, 9691.0, 9684.0, 9675.0, 9683.0, 9699.0, 9654.0, 9786.0, 9702.0, 9707.0, 9673.0, 9670.0, 9659.0, 9648.0, 9649.0, 9654.0, 9671.0, 9685.0, 9690.0, 9692.0, 9692.0, 9686.0, 9667.0, 9660.0, 9650.0, 9643.0, 9653.0, 9668.0, 9678.0, 9694.0, 9684.0, 9680.0, 9674.0, 9656.0, 9647.0, 9648.0, 9647.0, 9647.0, 9663.0, 9680.0, 9676.0, 9685.0, 9701.0, 9666.0, 9645.0, 9634.0, 9648.0, 9650.0, 9647.0, 9651.0, 9658.0, 9663.0, 9674.0, 9704.0, 9688.0, 9684.0, 9607.0, 9694.0, 9681.0, 9703.0, 9684.0, 9685.0, 9675.0, 9658.0, 9690.0, 9654.0, 9657.0, 9669.0, 9680.0, 9682.0, 9688.0, 9672.0, 9665.0, 9669.0, 9662.0, 9662.0, 9669.0, 9678.0, 9672.0, 9674.0, 9655.0, 9647.0, 9645.0, 9630.0, 9633.0, 9599.0],
      "WindowWidth": [20701.0, 20608.0, 20612.0, 20606.0, 20618.0, 20630.0, 20617.0, 20645.0, 20689.0, 20707.0, 20721.0, 20717.0, 20713.0, 20675.0, 20670.0, 20637.0, 20674.0, 20769.0, 20817.0, 20792.0, 20766.0, 20727.0, 20655.0, 20569.0, 20694.0, 20589.0, 20440.0, 20757.0, 20718.0, 20669.0, 20625.0, 20568.0, 20579.0, 20632.0, 20594.0, 20562.0, 20555.0, 20585.0, 20591.0, 20605.0, 20612.0, 20592.0, 20538.0, 20571.0, 20554.0, 20538.0, 20581.0, 20650.0, 20671.0, 20682.0, 20631.0, 20613.0, 20598.0, 20560.0, 20575.0, 20554.0, 20566.0, 20612.0, 20686.0, 20732.0, 20738.0, 20738.0, 20667.0, 20657.0, 20635.0, 20628.0, 20618.0, 20634.0, 20647.0, 20671.0, 20715.0, 20723.0, 20692.0, 20658.0, 20641.0, 20616.0, 20630.0, 20615.0, 20584.0, 20604.0, 20614.0, 20626.0, 20615.0, 20627.0, 20626.0, 20629.0, 20642.0, 20637.0, 20651.0, 20654.0, 20649.0, 20631.0, 20594.0, 20650.0, 20654.0, 20653.0, 20662.0, 20654.0, 20649.0, 20658.0, 20639.0, 20642.0, 20672.0, 20675.0, 20674.0, 20634.0, 20676.0, 20661.0, 20645.0, 20630.0, 20648.0, 20679.0, 20547.0, 20884.0, 20685.0, 20693.0, 20625.0, 20618.0, 20588.0, 20561.0, 20566.0, 20575.0, 20614.0, 20652.0, 20659.0, 20665.0, 20661.0, 20645.0, 20602.0, 20591.0, 20566.0, 20555.0, 20582.0, 20613.0, 20639.0, 20672.0, 20656.0, 20640.0, 20622.0, 20577.0, 20556.0, 20562.0, 20558.0, 20556.0, 20592.0, 20628.0, 20627.0, 20644.0, 20666.0, 20600.0, 20559.0, 20531.0, 20562.0, 20566.0, 20558.0, 20575.0, 20589.0, 20603.0, 20629.0, 20681.0, 20653.0, 20639.0, 20462.0, 20668.0, 20625.0, 20671.0, 20635.0, 20640.0, 20618.0, 20578.0, 20628.0, 20568.0, 20579.0, 20609.0, 20638.0, 20644.0, 20651.0, 20616.0, 20603.0, 20606.0, 20598.0, 20598.0, 20610.0, 20630.0, 20611.0, 20625.0, 20580.0, 20560.0, 20554.0, 20522.0, 20522.0, 20453.0]
    },
    "slices": {}
  },
  "NumberOfVolumes": 192
}