{
  "aor": 0.0006733507853403141,
  "aqi": 0.005051233612565445,
  "bids_meta": {
    "AcquisitionMatrixPE": 104,
    "AcquisitionNumber": 1,
    "AcquisitionTime": "17:32:7.445000",
    "BandwidthPerPixelPhaseEncode": 16.578,
    "BaseResolution": 104,
    "BodyPartExamined": "BRAIN",
    "CogAtlasID": "TODO",
    "ConsistencyInfo": "N4_VE11C_LATEST_20160120",
    "ConversionSoftware": "dcm2niix",
    "ConversionSoftwareVersion": "v1.0.20190902",
    "DerivedVendorReportedEchoSpacing": 0.000580009,
    "DeviceSerialNumber": "166018",
    "DwellTime": 2.1e-06,
    "EchoTime": 0.037,
    "EchoTrainLength": 104,
    "EffectiveEchoSpacing": 0.000580009,
    "FlipAngle": 68,
    "ImageComments": "Unaliased_MB6_PE3_LB",
    "ImageOrientationPatientDICOM": [
      0.999994,
      0.00049522,
      0.00344817,
      0.000523572,
      0.957233,
      -0.289316
    ],
    "ImageType": [
      "ORIGINAL",
      "PRIMARY",
      "M",
      "MB",
      "ND",
      "MOSAIC"
    ],
    "ImagingFrequency": 123.191,
    "InPlanePhaseEncodingDirectionDICOM": "COL",
    "InstitutionAddress": "Washington_Place_6_NYC_NYC_US_10003",
    "InstitutionName": "NYU_Center_for_Brain_Imaging",
    "InstitutionalDepartmentName": "Department",
    "MRAcquisitionType": "2D",
    "MagneticFieldStrength": 3,
    "Manufacturer": "Siemens",
    "ManufacturersModelName": "Prisma",
    "Modality": "MR",
    "MultibandAccelerationFactor": 6,
    "NumberOfVolumes": 192,
    "PartialFourier": 1,
    "PatientPosition": "HFS",
    "PercentPhaseFOV": 100,
    "PhaseEncodingDirection": "j",
    "PhaseEncodingSteps": 104,
    "PhaseResolution": 1,
    "PixelBandwidth": 2290,
    "ProcedureStepDescription": "Investigators_Winawer",
    "ProtocolName": "cmrr_mbepi_s6_2mm_66sl_PA_task-prf",
    "PulseSequenceDetails": "%CustomerSeq%_cmrr_mbep2d_bold",
    "ReceiveCoilActiveElements": "HC1-7",
    "ReceiveCoilName": "HeadNeck_64",
    "ReconMatrixPE": 104,
    "RepetitionTime": 1,
    "SAR": 0.0603576,
    "ScanOptions": "FS",
    "ScanningSequence": "EP",
    "SequenceName": "epfid2d1_104",
    "SequenceVariant": "SK_SS",
    "SeriesDescription": "cmrr_mbepi_s6_2mm_66sl_PA_task-prf",
    "SeriesNumber": 10,
    "ShimSetting": [
      242,
      -12614,
      -8495,
      413,
      -56,
      140,
      -157,
      19
    ],
    "SliceThickness": 2,
    "SliceTiming": [
      0,
      0.535,
      0.09,
      0.625,
      0.1775,
      0.7125,
      0.2675,
      0.8025,
      0.3575,
      0.89,
      0.445,
      0,
      0.535,
      0.09,
      0.625,
      0.1775,
      0.7125,
      0.2675,
      0.8025,
      0.3575,
      0.89,
      0.445,
      0,
      0.535,
      0.09,
      0.625,
      0.1775,
      0.7125,
      0.2675,
      0.8025,
      0.3575,
      0.89,
      0.445,
      0,
      0.535,
      0.09,
      0.625,
      0.1775,
      0.7125,
      0.2675,
      0.8025,
      0.3575,
      0.89,
      0.445,
      0,
      0.535,
      0.09,
      0.625,
      0.1775,
      0.7125,
      0.2675,
      0.8025,
      0.3575,
      0.89,
      0.445,
      0,
      0.535,
      0.09,
      0.625,
      0.1775,
      0.7125,
      0.2675,
      0.8025,
      0.3575,
      0.89,
      0.445
    ],
    "SoftwareVersions": "syngo_MR_E11",
    "SpacingBetweenSlices": 2,
    "StationName": "AWP166018",
    "TaskName": "prf",
    "TotalReadoutTime": 0.0597409,
    "TxRefAmp": 213.445,
    "WipMemBlock": "be6da9ce-12d5-4b28-82cb-6e292074ef89||Sequence: R016 ve11c/master r/8780670; Nov 27 2017 15:05:12 by eja",
    "acq_id": "PA",
    "dataset": "unknown",
    "dcmmeta_affine": [
      [
        -1.9999878406524658,
        0.0010471435962244868,
        0.006887949071824551,
        108.51509094238281
      ],
      [
        -0.0009904401376843452,
        1.9144669771194458,
        -0.5786323547363281,
        -70.68016815185547
      ],
      [
        0.00689633097499609,
        0.5786322355270386,
        1.9144548177719116,
        -76.74503326416016
      ],
      [
        0.0,
        0.0,
        0.0,
        1.0
      ]
    ],
    "dcmmeta_reorient_transform": [
      [
        0.0,
        -1.0,
        0.0,
        103.0
      ],
      [
        1.0,
        0.0,
        0.0,
        0.0
      ],
      [
        0.0,
        0.0,
        1.0,
        0.0
      ],
      [
        0.0,
        0.0,
        0.0,
        1.0
      ]
    ],
    "dcmmeta_shape": [
      104,
      104,
      66,
      192
    ],
    "dcmmeta_slice_dim": 2,
    "dcmmeta_version": 0.6,
    "global": {
      "const": {
        "AccessionNumber": "juLLh44k",
        "AcquisitionMatrix": [
          104,
          0,
          0,
          104
        ],
        "AngioFlag": "N",
        "BitsAllocated": 16,
        "BitsStored": 16,
        "BodyPartExamined": "BRAIN",
        "Columns": 936,
        "EchoNumbers": 1,
        "EchoTime": 37.0,
        "EchoTrainLength": 104,
        "FlipAngle": 68.0,
        "HighBit": 15,
        "ImageOrientationPatient": [
          0.99999393243719,
          0.0004952200849,
          0.00344816557976,
          0.0005235718208,
          0.95723346644146,
          -0.2893161187992
        ],
        "ImagePositionPatient": [
          -941.05351392933,
          -923.3401956845,
          220.6962216572
        ],
        "ImageType": [
          "ORIGINAL",
          "PRIMARY",
          "M",
          "MB",
          "ND",
          "MOSAIC"
        ],
        "ImagedNucleus": "1H",
        "ImagingFrequency": 123.191074,
        "InPlanePhaseEncodingDirection": "COL",
        "MRAcquisitionType": "2D",
        "MagneticFieldStrength": 3.0,
        "Manufacturer": "SIEMENS",
        "ManufacturerModelName": "Prisma",
        "Modality": "MR",
        "NumberOfAverages": 1.0,
        "NumberOfPhaseEncodingSteps": 104,
        "PercentPhaseFieldOfView": 100.0,
        "PercentSampling": 100.0,
        "PerformedProcedureStepStartTime": "171417.341000",
        "PhotometricInterpretation": "MONOCHROME2",
        "PixelBandwidth": 2290.0,
        "PixelRepresentation": 0,
        "PixelSpacing": [
          2.0,
          2.0
        ],
        "ProtocolName": "cmrr_mbepi_s6_2mm_66sl_PA_task-prf",
        "RepetitionTime": 1000.0,
        "Rows": 936,
        "SAR": 0.06035761134849,
        "SamplesPerPixel": 1,
        "ScanOptions": "FS",
        "ScanningSequence": "EP",
        "SequenceName": "epfid2d1_104",
        "SequenceVariant": [
          "SK",
          "SS"
        ],
        "SeriesDescription": "cmrr_mbepi_s6_2mm_66sl_PA_task-prf",
        "SeriesNumber": 10,
        "SeriesTime": "173336.949000",
        "SliceLocation": -52.639813153631,
        "SliceThickness": 2.0,
        "SmallestImagePixelValue": 0,
        "SoftwareVersions": "syngo MR E11",
        "SpacingBetweenSlices": 1.9999999805911,
        "SpecificCharacterSet": "ISO_IR 100",
        "StudyID": "1",
        "StudyTime": "171417.280000",
        "TransmitCoilName": "Body",
        "VariableFlipAngleFlag": "N",
        "WindowCenterWidthExplanation": "Algo1",
        "dBdt": 0.0
      },
      "slices": {}
    },
    "modality": "bold",
    "run_id": 2,
    "session_id": "nyu3t01",
    "subject_id": "wlsubj095",
    "task_id": "prf",
    "time": {
      "samples": {
        "AcquisitionNumber": [
          1,
          2,
          3,
          4,
          5,
          6,
          7,
          8,
          9,
          10,
          11,
          12,
          13,
          14,
          15,
          16,
          17,
          18,
          19,
          20,
          21,
          22,
          23,
          24,
          25,
          26,
          27,
          28,
          29,
          30,
          31,
          32,
          33,
          34,
          35,
          36,
          37,
          38,
          39,
          40,
          41,
          42,
          43,
          44,
          45,
          46,
          47,
          48,
          49,
          50,
          51,
          52,
          53,
          54,
          55,
          56,
          57,
          58,
          59,
          60,
          61,
          62,
          63,
          64,
          65,
          66,
          67,
          68,
          69,
          70,
          71,
          72,
          73,
          74,
          75,
          76,
          77,
          78,
          79,
          80,
          81,
          82,
          83,
          84,
          85,
          86,
          87,
          88,
          89,
          90,
          91,
          92,
          93,
          94,
          95,
          96,
          97,
          98,
          99,
          100,
          101,
          102,
          103,
          104,
          105,
          106,
          107,
          108,
          109,
          110,
          111,
          112,
          113,
          114,
          115,
          116,
          117,
          118,
          119,
          120,
          121,
          122,
          123,
          124,
          125,
          126,
          127,
          128,
          129,
          130,
          131,
          132,
          133,
          134,
          135,
          136,
          137,
          138,
          139,
          140,
          141,
          142,
          143,
          144,
          145,
          146,
          147,
          148,
          149,
          150,
          151,
          152,
          153,
          154,
          155,
          156,
          157,
          158,
          159,
          160,
          161,
          162,
          163,
          164,
          165,
          166,
          167,
          168,
          169,
          170,
          171,
          172,
          173,
          174,
          175,
          176,
          177,
          178,
          179,
          180,
          181,
          182,
          183,
          184,
          185,
          186,
          187,
          188,
          189,
          190,
          191,
          192
        ],
        "AcquisitionTime": [
          "173207.445000",
          "173208.445000",
          "173209.445000",
          "173210.445000",
          "173211.445000",
          "173212.445000",
          "173213.445000",
          "173214.445000",
          "173215.445000",
          "173216.445000",
          "173217.445000",
          "173218.445000",
          "173219.445000",
          "173220.445000",
          "173221.445000",
          "173222.445000",
          "173223.445000",
          "173224.445000",
          "173225.445000",
          "173226.445000",
          "173227.445000",
          "173228.445000",
          "173229.445000",
          "173230.445000",
          "173231.445000",
          "173232.445000",
          "173233.445000",
          "173234.445000",
          "173235.445000",
          "173236.445000",
          "173237.445000",
          "173238.445000",
          "173239.445000",
          "173240.445000",
          "173241.445000",
          "173242.445000",
          "173243.445000",
          "173244.445000",
          "173245.445000",
          "173246.445000",
          "173247.445000",
          "173248.445000",
          "173249.445000",
          "173250.445000",
          "173251.445000",
          "173252.445000",
          "173253.445000",
          "173254.445000",
          "173255.445000",
          "173256.445000",
          "173257.445000",
          "173258.445000",
          "173259.445000",
          "173300.445000",
          "173301.445000",
          "173302.445000",
          "173303.445000",
          "173304.445000",
          "173305.445000",
          "173306.445000",
          "173307.445000",
          "173308.445000",
          "173309.445000",
          "173310.445000",
          "173311.445000",
          "173312.445000",
          "173313.445000",
          "173314.445000",
          "173315.445000",
          "173316.445000",
          "173317.445000",
          "173318.445000",
          "173319.445000",
          "173320.445000",
          "173321.445000",
          "173322.445000",
          "173323.445000",
          "173324.445000",
          "173325.445000",
          "173326.445000",
          "173327.445000",
          "173328.445000",
          "173329.445000",
          "173330.445000",
          "173331.445000",
          "173332.445000",
          "173333.445000",
          "173334.445000",
          "173335.445000",
          "173336.445000",
          "173337.445000",
          "173338.445000",
          "173339.445000",
          "173340.445000",
          "173341.445000",
          "173342.445000",
          "173343.445000",
          "173344.445000",
          "173345.445000",
          "173346.445000",
          "173347.445000",
          "173348.445000",
          "173349.445000",
          "173350.445000",
          "173351.445000",
          "173352.445000",
          "173353.445000",
          "173354.445000",
          "173355.445000",
          "173356.445000",
          "173357.445000",
          "173358.445000",
          "173359.445000",
          "173400.445000",
          "173401.445000",
          "173402.445000",
          "173403.445000",
          "173404.445000",
          "173405.445000",
          "173406.445000",
          "173407.445000",
          "173408.445000",
          "173409.445000",
          "173410.445000",
          "173411.445000",
          "173412.445000",
          "173413.445000",
          "173414.445000",
          "173415.445000",
          "173416.445000",
          "173417.445000",
          "173418.445000",
          "173419.445000",
          "173420.445000",
          "173421.445000",
          "173422.445000",
          "173423.445000",
          "173424.445000",
          "173425.445000",
          "173426.445000",
          "173427.445000",
          "173428.445000",
          "173429.445000",
          "173430.445000",
          "173431.445000",
          "173432.445000",
          "173433.445000",
          "173434.445000",
          "173435.445000",
          "173436.445000",
          "173437.445000",
          "173438.445000",
          "173439.445000",
          "173440.445000",
          "173441.445000",
          "173442.445000",
          "173443.445000",
          "173444.445000",
          "173445.445000",
          "173446.445000",
          "173447.445000",
          "173448.445000",
          "173449.445000",
          "173450.445000",
          "173451.445000",
          "173452.445000",
          "173453.445000",
          "173454.445000",
          "173455.445000",
          "173456.445000",
          "173457.445000",
          "173458.445000",
          "173459.445000",
          "173500.445000",
          "173501.445000",
          "173502.445000",
          "173503.445000",
          "173504.445000",
          "173505.445000",
          "173506.445000",
          "173507.445000",
          "173508.445000",
          "173509.445000",
          "173510.445000",
          "173511.445000",
          "173512.445000",
          "173513.445000",
          "173514.445000",
          "173515.445000",
          "173516.445000",
          "173517.445000",
          "173518.445000"
        ],
        "ContentTime": [
          "173336.952000",
          "173336.956000",
          "173336.959000",
          "173336.962000",
          "173336.965000",
          "173336.968000",
          "173336.971000",
          "173336.973000",
          "173336.976000",
          "173336.979000",
          "173336.982000",
          "173336.985000",
          "173336.988000",
          "173336.991000",
          "173336.993000",
          "173336.996000",
          "173337.000000",
          "173337.012000",
          "173337.023000",
          "173337.026000",
          "173337.029000",
          "173337.032000",
          "173337.034000",
          "173337.037000",
          "173337.040000",
          "173337.043000",
          "173337.046000",
          "173337.049000",
          "173337.052000",
          "173337.056000",
          "173337.059000",
          "173337.061000",
          "173337.064000",
          "173337.067000",
          "173337.070000",
          "173337.073000",
          "173337.076000",
          "173337.082000",
          "173337.085000",
          "173337.088000",
          "173337.090000",
          "173337.093000",
          "173337.096000",
          "173337.099000",
          "173337.102000",
          "173337.105000",
          "173337.107000",
          "173356.925000",
          "173356.928000",
          "173356.931000",
          "173356.934000",
          "173356.937000",
          "173356.939000",
          "173356.942000",
          "173356.945000",
          "173356.948000",
          "173356.951000",
          "173356.954000",
          "173356.956000",
          "173356.959000",
          "173356.962000",
          "173356.965000",
          "173356.968000",
          "173356.971000",
          "173356.974000",
          "173356.976000",
          "173356.979000",
          "173356.982000",
          "173356.985000",
          "173356.988000",
          "173356.991000",
          "173356.994000",
          "173356.997000",
          "173357.000000",
          "173357.003000",
          "173416.925000",
          "173416.928000",
          "173416.931000",
          "173416.934000",
          "173416.936000",
          "173416.939000",
          "173416.942000",
          "173416.945000",
          "173416.948000",
          "173416.951000",
          "173416.953000",
          "173416.956000",
          "173416.959000",
          "173416.962000",
          "173416.965000",
          "173416.968000",
          "173416.971000",
          "173416.973000",
          "173416.976000",
          "173416.979000",
          "173416.982000",
          "173416.985000",
          "173416.988000",
          "173417.001000",
          "173417.004000",
          "173417.007000",
          "173417.009000",
          "173417.012000",
          "173436.925000",
          "173436.928000",
          "173436.931000",
          "173436.934000",
          "173436.936000",
          "173436.939000",
          "173436.942000",
          "173436.945000",
          "173436.948000",
          "173436.951000",
          "173436.954000",
          "173436.957000",
          "173436.960000",
          "173436.962000",
          "173436.965000",
          "173436.968000",
          "173436.975000",
          "173436.978000",
          "173436.981000",
          "173436.984000",
          "173436.987000",
          "173436.990000",
          "173436.993000",
          "173436.995000",
          "173436.998000",
          "173437.002000",
          "173437.005000",
          "173437.008000",
          "173456.925000",
          "173456.928000",
          "173456.931000",
          "173456.934000",
          "173456.937000",
          "173456.939000",
          "173456.942000",
          "173456.945000",
          "173456.948000",
          "173456.951000",
          "173456.954000",
          "173456.957000",
          "173456.960000",
          "173456.962000",
          "173456.965000",
          "173456.968000",
          "173456.971000",
          "173456.974000",
          "173456.977000",
          "173456.980000",
          "173456.982000",
          "173456.985000",
          "173456.988000",
          "173456.991000",
          "173456.994000",
          "173456.997000",
          "173457.001000",
          "173457.004000",
          "173516.924000",
          "173516.927000",
          "173516.930000",
          "173516.933000",
          "173516.936000",
          "173516.938000",
          "173516.941000",
          "173516.944000",
          "173516.947000",
          "173516.950000",
          "173516.953000",
          "173516.955000",
          "173516.958000",
          "173516.970000",
          "173516.973000",
          "173516.976000",
          "173516.978000",
          "173516.981000",
          "173516.984000",
          "173516.987000",
          "173516.990000",
          "173516.993000",
          "173516.996000",
          "173517.000000",
          "173517.002000",
          "173517.005000",
          "173517.008000",
          "173517.011000",
          "173517.014000",
          "173520.253000",
          "173520.256000",
          "173520.259000",
          "173520.262000"
        ],
        "InstanceCreationTime": [
          "173336.952000",
          "173336.956000",
          "173336.959000",
          "173336.962000",
          "173336.965000",
          "173336.968000",
          "173336.971000",
          "173336.973000",
          "173336.976000",
          "173336.979000",
          "173336.982000",
          "173336.985000",
          "173336.988000",
          "173336.991000",
          "173336.993000",
          "173336.996000",
          "173337.000000",
          "173337.012000",
          "173337.023000",
          "173337.026000",
          "173337.029000",
          "173337.032000",
          "173337.034000",
          "173337.037000",
          "173337.040000",
          "173337.043000",
          "173337.046000",
          "173337.049000",
          "173337.052000",
          "173337.056000",
          "173337.059000",
          "173337.061000",
          "173337.064000",
          "173337.067000",
          "173337.070000",
          "173337.073000",
          "173337.076000",
          "173337.082000",
          "173337.085000",
          "173337.088000",
          "173337.090000",
          "173337.093000",
          "173337.096000",
          "173337.099000",
          "173337.102000",
          "173337.105000",
          "173337.107000",
          "173356.925000",
          "173356.928000",
          "173356.931000",
          "173356.934000",
          "173356.937000",
          "173356.939000",
          "173356.942000",
          "173356.945000",
          "173356.948000",
          "173356.951000",
          "173356.954000",
          "173356.956000",
          "173356.959000",
          "173356.962000",
          "173356.965000",
          "173356.968000",
          "173356.971000",
          "173356.974000",
          "173356.976000",
          "173356.979000",
          "173356.982000",
          "173356.985000",
          "173356.988000",
          "173356.991000",
          "173356.994000",
          "173356.997000",
          "173357.000000",
          "173357.003000",
          "173416.925000",
          "173416.928000",
          "173416.931000",
          "173416.934000",
          "173416.936000",
          "173416.939000",
          "173416.942000",
          "173416.945000",
          "173416.948000",
          "173416.951000",
          "173416.953000",
          "173416.956000",
          "173416.959000",
          "173416.962000",
          "173416.965000",
          "173416.968000",
          "173416.971000",
          "173416.973000",
          "173416.976000",
          "173416.979000",
          "173416.982000",
          "173416.985000",
          "173416.988000",
          "173417.001000",
          "173417.004000",
          "173417.007000",
          "173417.009000",
          "173417.012000",
          "173436.925000",
          "173436.928000",
          "173436.931000",
          "173436.934000",
          "173436.936000",
          "173436.939000",
          "173436.942000",
          "173436.945000",
          "173436.948000",
          "173436.951000",
          "173436.954000",
          "173436.957000",
          "173436.960000",
          "173436.962000",
          "173436.965000",
          "173436.968000",
          "173436.975000",
          "173436.978000",
          "173436.981000",
          "173436.984000",
          "173436.987000",
          "173436.990000",
          "173436.993000",
          "173436.995000",
          "173436.998000",
          "173437.002000",
          "173437.005000",
          "173437.008000",
          "173456.925000",
          "173456.928000",
          "173456.931000",
          "173456.934000",
          "173456.937000",
          "173456.939000",
          "173456.942000",
          "173456.945000",
          "173456.948000",
          "173456.951000",
          "173456.954000",
          "173456.957000",
          "173456.960000",
          "173456.962000",
          "173456.965000",
          "173456.968000",
          "173456.971000",
          "173456.974000",
          "173456.977000",
          "173456.980000",
          "173456.982000",
          "173456.985000",
          "173456.988000",
          "173456.991000",
          "173456.994000",
          "173456.997000",
          "173457.001000",
          "173457.004000",
          "173516.924000",
          "173516.927000",
          "173516.930000",
          "173516.933000",
          "173516.936000",
          "173516.938000",
          "173516.941000",
          "173516.944000",
          "173516.947000",
          "173516.950000",
          "173516.953000",
          "173516.955000",
          "173516.958000",
          "173516.970000",
          "173516.973000",
          "173516.976000",
          "173516.978000",
          "173516.981000",
          "173516.984000",
          "173516.987000",
          "173516.990000",
          "173516.993000",
          "173516.996000",
          "173517.000000",
          "173517.002000",
          "173517.005000",
          "173517.008000",
          "173517.011000",
          "173517.014000",
          "173520.253000",
          "173520.256000",
          "173520.259000",
          "173520.262000"
        ],
        "InstanceNumber": [
          1,
          2,
          3,
          4,
          5,
          6,
          7,
          8,
          9,
          10,
          11,
          12,
          13,
          14,
          15,
          16,
          17,
          18,
          19,
          20,
          21,
          22,
          23,
          24,
          25,
          26,
          27,
          28,
          29,
          30,
          31,
          32,
          33,
          34,
          35,
          36,
          37,
          38,
          39,
          40,
          41,
          42,
          43,
          44,
          45,
          46,
          47,
          48,
          49,
          50,
          51,
          52,
          53,
          54,
          55,
          56,
          57,
          58,
          59,
          60,
          61,
          62,
          63,
          64,
          65,
          66,
          67,
          68,
          69,
          70,
          71,
          72,
          73,
          74,
          75,
          76,
          77,
          78,
          79,
          80,
          81,
          82,
          83,
          84,
          85,
          86,
          87,
          88,
          89,
          90,
          91,
          92,
          93,
          94,
          95,
          96,
          97,
          98,
          99,
          100,
          101,
          102,
          103,
          104,
          105,
          106,
          107,
          108,
          109,
          110,
          111,
          112,
          113,
          114,
          115,
          116,
          117,
          118,
          119,
          120,
          121,
          122,
          123,
          124,
          125,
          126,
          127,
          128,
          129,
          130,
          131,
          132,
          133,
          134,
          135,
          136,
          137,
          138,
          139,
          140,
          141,
          142,
          143,
          144,
          145,
          146,
          147,
          148,
          149,
          150,
          151,
          152,
          153,
          154,
          155,
          156,
          157,
          158,
          159,
          160,
          161,
          162,
          163,
          164,
          165,
          166,
          167,
          168,
          169,
          170,
          171,
          172,
          173,
          174,
          175,
          176,
          177,
          178,
          179,
          180,
          181,
          182,
          183,
          184,
          185,
          186,
          187,
          188,
          189,
          190,
          191,
          192
        ],
        "LargestImagePixelValue": [
          32518,
          33006,
          31803,
          32172,
          31465,
          31848,
          32387,
          32280,
          31825,
          32012,
          31563,
          32030,
          31971,
          31829,
          31851,
          32554,
          32101,
          32200,
          31704,
          30771,
          30768,
          30727,
          30624,
          31784,
          31840,
          31472,
          30164,
          30873,
          30635,
          30612,
          31393,
          31643,
          30949,
          30538,
          31172,
          31108,
          30864,
          31390,
          31447,
          30919,
          31991,
          31362,
          31305,
          31151,
          31868,
          30517,
          30661,
          31367,
          30925,
          30401,
          31245,
          30273,
          30774,
          31267,
          30231,
          30478,
          30743,
          30405,
          30560,
          31412,
          30203,
          30647,
          30911,
          31569,
          31283,
          31336,
          31669,
          31182,
          31359,
          31465,
          30875,
          30830,
          30941,
          31337,
          30880,
          30512,
          30344,
          31143,
          30377,
          30765,
          30644,
          31049,
