{
  "aor": 0.0006960937500000001,
  "aqi": 0.005017764583333333,
  "bids_meta": {
    "AcquisitionMatrixPE": 104,
    "AcquisitionNumber": 1,
    "AcquisitionTime": "13:38:14.487500",
    "BandwidthPerPixelPhaseEncode": 16.578,
    "BaseResolution": 104,
    "BodyPartExamined": "BRAIN",
    "CogAtlasID": "TODO",
    "ConsistencyInfo": "N4_VE11C_LATEST_20160120",
    "ConversionSoftware": "dcm2niix",
    "ConversionSoftwareVersion": "v1.0.20190902",
    "DerivedVendorReportedEchoSpacing": 0.000580009,
    "DeviceSerialNumber": "166018",
    "DwellTime": 2.1e-06,
    "EchoTime": 0.037,
    "EchoTrainLength": 104,
    "EffectiveEchoSpacing": 0.000580009,
    "FlipAngle": 68,
    "ImageComments": "Unaliased_MB6_PE3_LB",
    "ImageOrientationPatientDICOM": [
      0.999816,
      -0.0181907,
      0.00610851,
      0.0188483,
      0.990694,
      -0.134799
    ],
    "ImageType": [
      "ORIGINAL",
      "PRIMARY",
      "M",
      "MB",
      "ND",
      "MOSAIC"
    ],
    "ImagingFrequency": 123.191,
    "InPlanePhaseEncodingDirectionDICOM": "COL",
    "InstitutionAddress": "Washington_Place_6_NYC_NYC_US_10003",
    "InstitutionName": "NYU_Center_for_Brain_Imaging",
    "InstitutionalDepartmentName": "Department",
    "MRAcquisitionType": "2D",
    "MagneticFieldStrength": 3,
    "Manufacturer": "Siemens",
    "ManufacturersModelName": "Prisma",
    "Modality": "MR",
    "MultibandAccelerationFactor": 6,
    "NumberOfVolumes": 192,
    "PartialFourier": 1,
    "PatientPosition": "HFS",
    "PercentPhaseFOV": 100,
    "PhaseEncodingDirection": "j",
    "PhaseEncodingSteps": 104,
    "PhaseResolution": 1,
    "PixelBandwidth": 2290,
    "ProcedureStepDescription": "Investigators_Winawer",
    "ProtocolName": "cmrr_mbepi_s6_2mm_66sl_PA_task-prf",
    "PulseSequenceDetails": "%CustomerSeq%_cmrr_mbep2d_bold",
    "ReceiveCoilActiveElements": "HC1-7",
    "ReceiveCoilName": "HeadNeck_64",
    "ReconMatrixPE": 104,
    "RepetitionTime": 1,
    "SAR": 0.0810484,
    "ScanOptions": "FS",
    "ScanningSequence": "EP",
    "SequenceName": "epfid2d1_104",
    "SequenceVariant": "SK_SS",
    "SeriesDescription": "cmrr_mbepi_s6_2mm_66sl_PA_task-prf",
    "SeriesNumber": 18,
    "ShimSetting": [
      261,
      -12629,
      -8429,
      370,
      4,
      -107,
      39,
      11
    ],
    "SliceThickness": 2,
    "SliceTiming": [
      0,
      0.5325,
      0.0875,
      0.6225,
      0.1775,
      0.7125,
      0.265,
      0.8,
      0.355,
      0.89,
      0.445,
      0,
      0.5325,
      0.0875,
      0.6225,
      0.1775,
      0.7125,
      0.265,
      0.8,
      0.355,
      0.89,
      0.445,
      0,
      0.5325,
      0.0875,
      0.6225,
      0.1775,
      0.7125,
      0.265,
      0.8,
      0.355,
      0.89,
      0.445,
      0,
      0.5325,
      0.0875,
      0.6225,
      0.1775,
      0.7125,
      0.265,
      0.8,
      0.355,
      0.89,
      0.445,
      0,
      0.5325,
      0.0875,
      0.6225,
      0.1775,
      0.7125,
      0.265,
      0.8,
      0.355,
      0.89,
      0.445,
      0,
      0.5325,
      0.0875,
      0.6225,
      0.1775,
      0.7125,
      0.265,
      0.8,
      0.355,
      0.89,
      0.445
    ],
    "SoftwareVersions": "syngo_MR_E11",
    "SpacingBetweenSlices": 2,
    "StationName": "AWP166018",
    "TaskName": "prf",
    "TotalReadoutTime": 0.0597409,
    "TxRefAmp": 237.001,
    "WipMemBlock": "95bbb8a7-0e05-47ef-8871-1135d58a0eb7||Sequence: R016 ve11c/master r/8780670; Nov 27 2017 15:05:12 by eja",
    "acq_id": "PA",
    "dataset": "unknown",
    "dcmmeta_affine": [
      [
        -1.9996317625045776,
        0.037696659564971924,
        0.007199128624051809,
        108.37948608398438
      ],
      [
        0.036381449550390244,
        1.9813872575759888,
        -0.26977935433387756,
        -85.99949645996094
      ],
      [
        0.012217020615935326,
        0.26959872245788574,
        1.9817081689834595,
        -54.79983901977539
      ],
      [
        0.0,
        0.0,
        0.0,
        1.0
      ]
    ],
    "dcmmeta_reorient_transform": [
      [
        0.0,
        -1.0,
        0.0,
        103.0
      ],
      [
        1.0,
        0.0,
        0.0,
        0.0
      ],
      [
        0.0,
        0.0,
        1.0,
        0.0
      ],
      [
        0.0,
        0.0,
        0.0,
        1.0
      ]
    ],
    "dcmmeta_shape": [
      104,
      104,
      66,
      192
    ],
    "dcmmeta_slice_dim": 2,
    "dcmmeta_version": 0.6,
    "global": {
      "const": {
        "AccessionNumber": "juikbecn",
        "AcquisitionMatrix": [
          104,
          0,
          0,
          104
        ],
        "AngioFlag": "N",
        "BitsAllocated": 16,
        "BitsStored": 16,
        "BodyPartExamined": "BRAIN",
        "Columns": 936,
        "EchoNumbers": 1,
        "EchoTime": 37.0,
        "EchoTrainLength": 104,
        "FlipAngle": 68.0,
        "HighBit": 15,
        "ImageOrientationPatient": [
          0.99981587486344,
          -0.0181907249106,
          0.0061085103163,
          0.01884832904788,
          0.99069363302343,
          -0.1347993545198
        ],
        "ImagePositionPatient": [
          -959.79086137635,
          -927.20581243245,
          80.039610185435
        ],
        "ImageType": [
          "ORIGINAL",
          "PRIMARY",
          "M",
          "MB",
          "ND",
          "MOSAIC"
        ],
        "ImagedNucleus": "1H",
        "ImagingFrequency": 123.190777,
        "InPlanePhaseEncodingDirection": "COL",
        "MRAcquisitionType": "2D",
        "MagneticFieldStrength": 3.0,
        "Manufacturer": "SIEMENS",
        "ManufacturerModelName": "Prisma",
        "Modality": "MR",
        "NumberOfAverages": 1.0,
        "NumberOfPhaseEncodingSteps": 104,
        "PercentPhaseFieldOfView": 100.0,
        "PercentSampling": 100.0,
        "PerformedProcedureStepStartTime": "130740.727000",
        "PhotometricInterpretation": "MONOCHROME2",
        "PixelBandwidth": 2290.0,
        "PixelRepresentation": 0,
        "PixelSpacing": [
          2.0,
          2.0
        ],
        "ProtocolName": "cmrr_mbepi_s6_2mm_66sl_PA_task-prf",
        "RepetitionTime": 1000.0,
        "Rows": 936,
        "SAR": 0.08104843520262,
        "SamplesPerPixel": 1,
        "ScanOptions": "FS",
        "ScanningSequence": "EP",
        "SequenceName": "epfid2d1_104",
        "SequenceVariant": [
          "SK",
          "SS"
        ],
        "SeriesDescription": "cmrr_mbepi_s6_2mm_66sl_PA_task-prf",
        "SeriesNumber": 18,
        "SeriesTime": "133911.816000",
        "SliceLocation": -42.308082128694,
        "SliceThickness": 2.0,
        "SmallestImagePixelValue": 0,
        "SoftwareVersions": "syngo MR E11",
        "SpacingBetweenSlices": 2.0000000027933,
        "SpecificCharacterSet": "ISO_IR 100",
        "StudyID": "2",
        "StudyTime": "130740.671000",
        "TransmitCoilName": "Body",
        "VariableFlipAngleFlag": "N",
        "WindowCenterWidthExplanation": "Algo1",
        "dBdt": 0.0
      },
      "slices": {}
    },
    "modality": "bold",
    "run_id": 6,
    "session_id": "nyu3t01",
    "subject_id": "wlsubj081",
    "task_id": "prf",
    "time": {
      "samples": {
        "AcquisitionNumber": [
          1,
          2,
          3,
          4,
          5,
          6,
          7,
          8,
          9,
          10,
          11,
          12,
          13,
          14,
          15,
          16,
          17,
          18,
          19,
          20,
          21,
          22,
          23,
          24,
          25,
          26,
          27,
          28,
          29,
          30,
          31,
          32,
          33,
          34,
          35,
          36,
          37,
          38,
          39,
          40,
          41,
          42,
          43,
          44,
          45,
          46,
          47,
          48,
          49,
          50,
          51,
          52,
          53,
          54,
          55,
          56,
          57,
          58,
          59,
          60,
          61,
          62,
          63,
          64,
          65,
          66,
          67,
          68,
          69,
          70,
          71,
          72,
          73,
          74,
          75,
          76,
          77,
          78,
          79,
          80,
          81,
          82,
          83,
          84,
          85,
          86,
          87,
          88,
          89,
          90,
          91,
          92,
          93,
          94,
          95,
          96,
          97,
          98,
          99,
          100,
          101,
          102,
          103,
          104,
          105,
          106,
          107,
          108,
          109,
          110,
          111,
          112,
          113,
          114,
          115,
          116,
          117,
          118,
          119,
          120,
          121,
          122,
          123,
          124,
          125,
          126,
          127,
          128,
          129,
          130,
          131,
          132,
          133,
          134,
          135,
          136,
          137,
          138,
          139,
          140,
          141,
          142,
          143,
          144,
          145,
          146,
          147,
          148,
          149,
          150,
          151,
          152,
          153,
          154,
          155,
          156,
          157,
          158,
          159,
          160,
          161,
          162,
          163,
          164,
          165,
          166,
          167,
          168,
          169,
          170,
          171,
          172,
          173,
          174,
          175,
          176,
          177,
          178,
          179,
          180,
          181,
          182,
          183,
          184,
          185,
          186,
          187,
          188,
          189,
          190,
          191,
          192
        ],
        "AcquisitionTime": [
          "133814.487500",
          "133815.487500",
          "133816.487500",
          "133817.487500",
          "133818.487500",
          "133819.487500",
          "133820.487500",
          "133821.487500",
          "133822.487500",
          "133823.487500",
          "133824.487500",
          "133825.487500",
          "133826.487500",
          "133827.487500",
          "133828.487500",
          "133829.487500",
          "133830.487500",
          "133831.487500",
          "133832.487500",
          "133833.487500",
          "133834.487500",
          "133835.487500",
          "133836.487500",
          "133837.487500",
          "133838.487500",
          "133839.487500",
          "133840.487500",
          "133841.487500",
          "133842.487500",
          "133843.487500",
          "133844.487500",
          "133845.487500",
          "133846.487500",
          "133847.487500",
          "133848.487500",
          "133849.487500",
          "133850.487500",
          "133851.487500",
          "133852.487500",
          "133853.487500",
          "133854.487500",
          "133855.487500",
          "133856.487500",
          "133857.487500",
          "133858.487500",
          "133859.487500",
          "133900.487500",
          "133901.487500",
          "133902.487500",
          "133903.487500",
          "133904.487500",
          "133905.487500",
          "133906.487500",
          "133907.487500",
          "133908.487500",
          "133909.487500",
          "133910.487500",
          "133911.487500",
          "133912.487500",
          "133913.487500",
          "133914.487500",
          "133915.487500",
          "133916.487500",
          "133917.487500",
          "133918.487500",
          "133919.487500",
          "133920.487500",
          "133921.487500",
          "133922.487500",
          "133923.487500",
          "133924.487500",
          "133925.487500",
          "133926.487500",
          "133927.487500",
          "133928.487500",
          "133929.487500",
          "133930.487500",
          "133931.487500",
          "133932.487500",
          "133933.487500",
          "133934.487500",
          "133935.487500",
          "133936.487500",
          "133937.487500",
          "133938.487500",
          "133939.487500",
          "133940.487500",
          "133941.487500",
          "133942.487500",
          "133943.487500",
          "133944.487500",
          "133945.487500",
          "133946.487500",
          "133947.487500",
          "133948.487500",
          "133949.487500",
          "133950.487500",
          "133951.487500",
          "133952.487500",
          "133953.487500",
          "133954.487500",
          "133955.487500",
          "133956.487500",
          "133957.487500",
          "133958.487500",
          "133959.487500",
          "134000.487500",
          "134001.487500",
          "134002.487500",
          "134003.487500",
          "134004.487500",
          "134005.487500",
          "134006.487500",
          "134007.487500",
          "134008.487500",
          "134009.487500",
          "134010.487500",
          "134011.487500",
          "134012.487500",
          "134013.487500",
          "134014.487500",
          "134015.487500",
          "134016.487500",
          "134017.487500",
          "134018.487500",
          "134019.487500",
          "134020.487500",
          "134021.487500",
          "134022.487500",
          "134023.487500",
          "134024.487500",
          "134025.487500",
          "134026.487500",
          "134027.487500",
          "134028.487500",
          "134029.487500",
          "134030.487500",
          "134031.487500",
          "134032.487500",
          "134033.487500",
          "134034.487500",
          "134035.487500",
          "134036.487500",
          "134037.487500",
          "134038.487500",
          "134039.487500",
          "134040.487500",
          "134041.487500",
          "134042.487500",
          "134043.487500",
          "134044.487500",
          "134045.487500",
          "134046.487500",
          "134047.487500",
          "134048.487500",
          "134049.487500",
          "134050.487500",
          "134051.487500",
          "134052.487500",
          "134053.487500",
          "134054.487500",
          "134055.487500",
          "134056.487500",
          "134057.487500",
          "134058.487500",
          "134059.487500",
          "134100.487500",
          "134101.487500",
          "134102.487500",
          "134103.487500",
          "134104.487500",
          "134105.487500",
          "134106.487500",
          "134107.487500",
          "134108.487500",
          "134109.487500",
          "134110.487500",
          "134111.487500",
          "134112.487500",
          "134113.487500",
          "134114.487500",
          "134115.487500",
          "134116.487500",
          "134117.487500",
          "134118.487500",
          "134119.487500",
          "134120.487500",
          "134121.487500",
          "134122.487500",
          "134123.487500",
          "134124.487500",
          "134125.487500"
        ],
        "ContentTime": [
          "133911.819000",
          "133931.790000",
          "133931.793000",
          "133931.804000",
          "133931.807000",
          "133931.810000",
          "133931.813000",
          "133931.816000",
          "133931.819000",
          "133931.822000",
          "133931.825000",
          "133931.828000",
          "133931.831000",
          "133931.834000",
          "133931.837000",
          "133931.840000",
          "133931.842000",
          "133931.845000",
          "133931.848000",
          "133931.857000",
          "133931.860000",
          "133931.863000",
          "133931.866000",
          "133931.869000",
          "133931.872000",
          "133931.875000",
          "133931.878000",
          "133931.881000",
          "133931.884000",
          "133951.791000",
          "133951.795000",
          "133951.800000",
          "133951.804000",
          "133951.807000",
          "133951.810000",
          "133951.813000",
          "133951.816000",
          "133951.819000",
          "133951.822000",
          "133951.824000",
          "133951.827000",
          "133951.830000",
          "133951.833000",
          "133951.836000",
          "133951.839000",
          "133951.842000",
          "133951.845000",
          "133951.848000",
          "133951.851000",
          "133951.857000",
          "133951.867000",
          "133951.870000",
          "133951.873000",
          "133951.876000",
          "133951.879000",
          "133951.882000",
          "133951.885000",
          "134011.790000",
          "134011.802000",
          "134011.805000",
          "134011.808000",
          "134011.811000",
          "134011.814000",
          "134011.817000",
          "134011.819000",
          "134011.822000",
          "134011.825000",
          "134011.828000",
          "134011.831000",
          "134011.834000",
          "134011.837000",
          "134011.840000",
          "134011.843000",
          "134011.846000",
          "134011.849000",
          "134011.852000",
          "134011.855000",
          "134011.858000",
          "134011.861000",
          "134011.864000",
          "134011.867000",
          "134011.870000",
          "134011.873000",
          "134011.876000",
          "134011.879000",
          "134011.882000",
          "134031.790000",
          "134031.793000",
          "134031.796000",
          "134031.799000",
          "134031.802000",
          "134031.805000",
          "134031.808000",
          "134031.811000",
          "134031.814000",
          "134031.826000",
          "134031.830000",
          "134031.832000",
          "134031.835000",
          "134031.838000",
          "134031.841000",
          "134031.844000",
          "134031.847000",
          "134031.850000",
          "134031.853000",
          "134031.856000",
          "134031.859000",
          "134031.862000",
          "134031.865000",
          "134031.868000",
          "134031.871000",
          "134031.874000",
          "134031.877000",
          "134031.880000",
          "134051.790000",
          "134051.793000",
          "134051.796000",
          "134051.799000",
          "134051.802000",
          "134051.805000",
          "134051.808000",
          "134051.811000",
          "134051.814000",
          "134051.817000",
          "134051.820000",
          "134051.823000",
          "134051.826000",
          "134051.829000",
          "134051.832000",
          "134051.835000",
          "134051.838000",
          "134051.845000",
          "134051.848000",
          "134051.850000",
          "134051.853000",
          "134051.856000",
          "134051.859000",
          "134051.862000",
          "134051.865000",
          "134051.868000",
          "134051.871000",
          "134051.874000",
          "134111.791000",
          "134111.794000",
          "134111.797000",
          "134111.800000",
          "134111.803000",
          "134111.806000",
          "134111.809000",
          "134111.812000",
          "134111.815000",
          "134111.818000",
          "134111.820000",
          "134111.823000",
          "134111.826000",
          "134111.829000",
          "134111.832000",
          "134111.835000",
          "134111.838000",
          "134111.841000",
          "134111.844000",
          "134111.847000",
          "134111.850000",
          "134111.853000",
          "134111.856000",
          "134111.859000",
          "134111.861000",
          "134111.864000",
          "134111.867000",
          "134111.870000",
          "134111.873000",
          "134127.582000",
          "134127.586000",
          "134127.589000",
          "134127.592000",
          "134127.595000",
          "134127.598000",
          "134127.601000",
          "134127.604000",
          "134127.607000",
          "134127.610000",
          "134127.613000",
          "134127.616000",
          "134127.619000",
          "134127.622000",
          "134127.625000",
          "134127.628000",
          "134127.631000",
          "134127.634000",
          "134127.637000",
          "134127.640000",
          "134127.643000"
        ],
        "InstanceCreationTime": [
          "133911.819000",
          "133931.790000",
          "133931.793000",
          "133931.804000",
          "133931.807000",
          "133931.810000",
          "133931.813000",
          "133931.816000",
          "133931.819000",
          "133931.822000",
          "133931.825000",
          "133931.828000",
          "133931.831000",
          "133931.834000",
          "133931.837000",
          "133931.840000",
          "133931.842000",
          "133931.845000",
          "133931.848000",
          "133931.857000",
          "133931.860000",
          "133931.863000",
          "133931.866000",
          "133931.869000",
          "133931.872000",
          "133931.875000",
          "133931.878000",
          "133931.881000",
          "133931.884000",
          "133951.791000",
          "133951.795000",
          "133951.800000",
          "133951.804000",
          "133951.807000",
          "133951.810000",
          "133951.813000",
          "133951.816000",
          "133951.819000",
          "133951.822000",
          "133951.824000",
          "133951.827000",
          "133951.830000",
          "133951.833000",
          "133951.836000",
          "133951.839000",
          "133951.842000",
          "133951.845000",
          "133951.848000",
          "133951.851000",
          "133951.857000",
          "133951.867000",
          "133951.870000",
          "133951.873000",
          "133951.876000",
          "133951.879000",
          "133951.882000",
          "133951.885000",
          "134011.790000",
          "134011.802000",
          "134011.805000",
          "134011.808000",
          "134011.811000",
          "134011.814000",
          "134011.817000",
          "134011.819000",
          "134011.822000",
          "134011.825000",
          "134011.828000",
          "134011.831000",
          "134011.834000",
          "134011.837000",
          "134011.840000",
          "134011.843000",
          "134011.846000",
          "134011.849000",
          "134011.852000",
          "134011.855000",
          "134011.858000",
          "134011.861000",
          "134011.864000",
          "134011.867000",
          "134011.870000",
          "134011.873000",
          "134011.876000",
          "134011.879000",
          "134011.882000",
          "134031.790000",
          "134031.793000",
          "134031.796000",
          "134031.799000",
          "134031.802000",
          "134031.805000",
          "134031.808000",
          "134031.811000",
          "134031.814000",
          "134031.826000",
          "134031.830000",
          "134031.832000",
          "134031.835000",
          "134031.838000",
          "134031.841000",
          "134031.844000",
          "134031.847000",
          "134031.850000",
          "134031.853000",
          "134031.856000",
          "134031.859000",
          "134031.862000",
          "134031.865000",
          "134031.868000",
          "134031.871000",
          "134031.874000",
          "134031.877000",
          "134031.880000",
          "134051.790000",
          "134051.793000",
          "134051.796000",
          "134051.799000",
          "134051.802000",
          "134051.805000",
          "134051.808000",
          "134051.811000",
          "134051.814000",
          "134051.817000",
          "134051.820000",
          "134051.823000",
          "134051.826000",
          "134051.829000",
          "134051.832000",
          "134051.835000",
          "134051.838000",
          "134051.845000",
          "134051.848000",
          "134051.850000",
          "134051.853000",
          "134051.856000",
          "134051.859000",
          "134051.862000",
          "134051.865000",
          "134051.868000",
          "134051.871000",
          "134051.874000",
          "134111.791000",
          "134111.794000",
          "134111.797000",
          "134111.800000",
          "134111.803000",
          "134111.806000",
          "134111.809000",
          "134111.812000",
          "134111.815000",
          "134111.818000",
          "134111.820000",
          "134111.823000",
          "134111.826000",
          "134111.829000",
          "134111.832000",
          "134111.835000",
          "134111.838000",
          "134111.841000",
          "134111.844000",
          "134111.847000",
          "134111.850000",
          "134111.853000",
          "134111.856000",
          "134111.859000",
          "134111.861000",
          "134111.864000",
          "134111.867000",
          "134111.870000",
          "134111.873000",
          "134127.582000",
          "134127.586000",
          "134127.589000",
          "134127.592000",
          "134127.595000",
          "134127.598000",
          "134127.601000",
          "134127.604000",
          "134127.607000",
          "134127.610000",
          "134127.613000",
          "134127.616000",
          "134127.619000",
          "134127.622000",
          "134127.625000",
          "134127.628000",
          "134127.631000",
          "134127.634000",
          "134127.637000",
          "134127.640000",
          "134127.643000"
        ],
        "InstanceNumber": [
          1,
          2,
          3,
          4,
          5,
          6,
          7,
          8,
          9,
          10,
          11,
          12,
          13,
          14,
          15,
          16,
          17,
          18,
          19,
          20,
          21,
          22,
          23,
          24,
          25,
          26,
          27,
          28,
          29,
          30,
          31,
          32,
          33,
          34,
          35,
          36,
          37,
          38,
          39,
          40,
          41,
          42,
          43,
          44,
          45,
          46,
          47,
          48,
          49,
          50,
          51,
          52,
          53,
          54,
          55,
          56,
          57,
          58,
          59,
          60,
          61,
          62,
          63,
          64,
          65,
          66,
          67,
          68,
          69,
          70,
          71,
          72,
          73,
          74,
          75,
          76,
          77,
          78,
          79,
          80,
          81,
          82,
          83,
          84,
          85,
          86,
          87,
          88,
          89,
          90,
          91,
          92,
          93,
          94,
          95,
          96,
          97,
          98,
          99,
          100,
          101,
          102,
          103,
          104,
          105,
          106,
          107,
          108,
          109,
          110,
          111,
          112,
          113,
          114,
          115,
          116,
          117,
          118,
          119,
          120,
          121,
          122,
          123,
          124,
          125,
          126,
          127,
          128,
          129,
          130,
          131,
          132,
          133,
          134,
          135,
          136,
          137,
          138,
          139,
          140,
          141,
          142,
          143,
          144,
          145,
          146,
          147,
          148,
          149,
          150,
          151,
          152,
          153,
          154,
          155,
          156,
          157,
          158,
          159,
          160,
          161,
          162,
          163,
          164,
          165,
          166,
          167,
          168,
          169,
          170,
          171,
          172,
          173,
          174,
          175,
          176,
          177,
          178,
          179,
          180,
          181,
          182,
          183,
          184,
          185,
          186,
          187,
          188,
          189,
          190,
          191,
          192
        ],
        "LargestImagePixelValue": [
          42904,
          41698,
          40592,
          40595,
          40512,
          40505,
          40075,
          40079,
          40135,
          40283,
          40551,
          40230,
          39848,
          40100,
          40136,
          40358,
          40075,
          39882,
          40362,
          40295,
          40418,
          40587,
          40297,
          40337,
          40447,
          40149,
          40054,
          40372,
          40502,
          40519,
          40121,
          40443,
          40216,
          40628,
          40107,
          40404,
          40168,
          40524,
          40503,
          40439,
          40885,
          40734,
          40584,
          40265,
          40200,
          39913,
          40515,
          40422,
          40292,
          40039,
          40532,
          39657,
          39582,
          40143,
          39958,
          39719,
          39829,
          39682,
          39548,
          40042,
          39753,
          39456,
          39833,
          40203,
          39689,
          39967,
          39600,
          39437,
          39980,
          39353,
          39800,
          39853,
          40075,
          39746,
          40385,
          39797,
          40063,
          39752,
          39885,
          40015,
          39655,
          39376,
