{
  "aor": 0.0008555729166666667,
  "aqi": 0.008643324947916666,
  "bids_meta": {
    "AcquisitionMatrixPE": 104,
    "AcquisitionNumber": 1,
    "AcquisitionTime": "14:30:54.440000",
    "BandwidthPerPixelPhaseEncode": 16.297,
    "BaseResolution": 104,
    "BodyPartExamined": "BRAIN",
    "CogAtlasID": "doi:TODO",
    "ConsistencyInfo": "N4_VE11C_LATEST_20160120",
    "ConversionSoftware": "dcm2niix",
    "ConversionSoftwareVersion": "v1.0.20190902",
    "DerivedVendorReportedEchoSpacing": 0.000590009,
    "DeviceSerialNumber": "166018",
    "DwellTime": 2.1e-06,
    "EchoTime": 0.0376,
    "EchoTrainLength": 104,
    "EffectiveEchoSpacing": 0.000590009,
    "FlipAngle": 68,
    "ImageComments": "Unaliased_MB6_PE3_LB",
    "ImageOrientationPatientDICOM": [
      0.999966,
      -0.00497421,
      0.00660377,
      0.00628303,
      0.976385,
      -0.215949
    ],
    "ImageType": [
      "ORIGINAL",
      "PRIMARY",
      "M",
      "MB",
      "ND",
      "MOSAIC"
    ],
    "ImagingFrequency": 123.191,
    "InPlanePhaseEncodingDirectionDICOM": "COL",
    "InstitutionAddress": "Washington_Place_6_NYC_NYC_US_10003",
    "InstitutionName": "NYU_Center_for_Brain_Imaging",
    "InstitutionalDepartmentName": "Department",
    "MRAcquisitionType": "2D",
    "MagneticFieldStrength": 3,
    "Manufacturer": "Siemens",
    "ManufacturersModelName": "Prisma",
    "Modality": "MR",
    "MultibandAccelerationFactor": 6,
    "NumberOfVolumes": 192,
    "PartialFourier": 1,
    "PatientPosition": "HFS",
    "PercentPhaseFOV": 100,
    "PhaseEncodingDirection": "j",
    "PhaseEncodingSteps": 104,
    "PhaseResolution": 1,
    "PixelBandwidth": 2290,
    "ProcedureStepDescription": "Investigators_Winawer",
    "ProtocolName": "cmrr_mbepi_s6_2mm_66sl_PA_task-prf",
    "PulseSequenceDetails": "%CustomerSeq%_cmrr_mbep2d_bold",
    "ReceiveCoilActiveElements": "HC1-7",
    "ReceiveCoilName": "HeadNeck_64",
    "ReconMatrixPE": 104,
    "RepetitionTime": 1,
    "SAR": 0.0775787,
    "ScanOptions": "FS",
    "ScanningSequence": "EP",
    "SequenceName": "epfid2d1_104",
    "SequenceVariant": "SK_SS",
    "SeriesDescription": "cmrr_mbepi_s6_2mm_66sl_PA_task-prf",
    "SeriesNumber": 10,
    "ShimSetting": [
      248,
      -12599,
      -8432,
      410,
      -68,
      -15,
      -73,
      -19
    ],
    "SliceThickness": 2,
    "SliceTiming": [
      0,
      0.535,
      0.09,
      0.625,
      0.1775,
      0.7125,
      0.2675,
      0.8025,
      0.3575,
      0.8925,
      0.445,
      0,
      0.535,
      0.09,
      0.625,
      0.1775,
      0.7125,
      0.2675,
      0.8025,
      0.3575,
      0.8925,
      0.445,
      0,
      0.535,
      0.09,
      0.625,
      0.1775,
      0.7125,
      0.2675,
      0.8025,
      0.3575,
      0.8925,
      0.445,
      0,
      0.535,
      0.09,
      0.625,
      0.1775,
      0.7125,
      0.2675,
      0.8025,
      0.3575,
      0.8925,
      0.445,
      0,
      0.535,
      0.09,
      0.625,
      0.1775,
      0.7125,
      0.2675,
      0.8025,
      0.3575,
      0.8925,
      0.445,
      0,
      0.535,
      0.09,
      0.625,
      0.1775,
      0.7125,
      0.2675,
      0.8025,
      0.3575,
      0.8925,
      0.445
    ],
    "SoftwareVersions": "syngo_MR_E11",
    "SpacingBetweenSlices": 2,
    "StationName": "AWP166018",
    "TaskName": "prf",
    "TotalReadoutTime": 0.060771,
    "TxRefAmp": 267.495,
    "VendorReportedEchoSpacing": 0.00059,
    "WipMemBlock": "8ef6ec9f-e1da-4b64-ae86-497b89904070||Sequence: R016 ve11c/master r/8780670; Nov 27 2017 15:05:12 by eja",
    "acq_id": "PA",
    "dataset": "unknown",
    "dcmmeta_affine": [
      [
        -1.9999316930770874,
        0.012566065415740013,
        0.010747287422418594,
        105.10359954833984
      ],
      [
        0.009948423132300377,
        1.9527690410614014,
        -0.4319654107093811,
        -64.03707122802734
      ],
      [
        0.013207538984715939,
        0.43189719319343567,
        1.9527647495269775,
        -79.63056182861328
      ],
      [
        0.0,
        0.0,
        0.0,
        1.0
      ]
    ],
    "dcmmeta_reorient_transform": [
      [
        0.0,
        -1.0,
        0.0,
        103.0
      ],
      [
        1.0,
        0.0,
        0.0,
        0.0
      ],
      [
        0.0,
        0.0,
        1.0,
        0.0
      ],
      [
        0.0,
        0.0,
        0.0,
        1.0
      ]
    ],
    "dcmmeta_shape": [
      104,
      104,
      66,
      192
    ],
    "dcmmeta_slice_dim": 2,
    "dcmmeta_version": 0.6,
    "global": {
      "const": {
        "AccessionNumber": "kr5f3gr7",
        "AcquisitionMatrix": [
          104,
          0,
          0,
          104
        ],
        "AngioFlag": "N",
        "BitsAllocated": 16,
        "BitsStored": 16,
        "BodyPartExamined": "BRAIN",
        "Columns": 936,
        "EchoNumbers": 1,
        "EchoTime": 37.6,
        "EchoTrainLength": 104,
        "FlipAngle": 68.0,
        "HighBit": 15,
        "ImageOrientationPatient": [
          0.99996582313977,
          -0.0049742117076,
          0.00660376940018,
          0.00628303279754,
          0.97638451694328,
          -0.215948601691
        ],
        "ImagePositionPatient": [
          -943.59695612437,
          -945.31151405382,
          139.02975176322
        ],
        "ImageType": [
          "ORIGINAL",
          "PRIMARY",
          "M",
          "MB",
          "ND",
          "MOSAIC"
        ],
        "ImagedNucleus": "1H",
        "ImagingFrequency": 123.190615,
        "InPlanePhaseEncodingDirection": "COL",
        "MRAcquisitionType": "2D",
        "MagneticFieldStrength": 3.0,
        "Manufacturer": "SIEMENS",
        "ManufacturerModelName": "Prisma",
        "Modality": "MR",
        "NumberOfAverages": 1.0,
        "NumberOfPhaseEncodingSteps": 104,
        "PercentPhaseFieldOfView": 100.0,
        "PercentSampling": 100.0,
        "PerformedProcedureStepStartTime": "142210.868000",
        "PhotometricInterpretation": "MONOCHROME2",
        "PixelBandwidth": 2290.0,
        "PixelRepresentation": 0,
        "PixelSpacing": [
          2.0,
          2.0
        ],
        "ProtocolName": "cmrr_mbepi_s6_2mm_66sl_PA_task-prf",
        "RepetitionTime": 1000.0,
        "Rows": 936,
        "SAR": 0.07757868287475,
        "SamplesPerPixel": 1,
        "ScanOptions": "FS",
        "ScanningSequence": "EP",
        "SequenceName": "epfid2d1_104",
        "SequenceVariant": [
          "SK",
          "SS"
        ],
        "SeriesDescription": "cmrr_mbepi_s6_2mm_66sl_PA_task-prf",
        "SeriesNumber": 10,
        "SeriesTime": "143210.267000",
        "SliceLocation": -63.354188394136,
        "SliceThickness": 2.0,
        "SmallestImagePixelValue": 0,
        "SoftwareVersions": "syngo MR E11",
        "SpacingBetweenSlices": 1.9999999142616,
        "SpecificCharacterSet": "ISO_IR 100",
        "StudyID": "1",
        "StudyTime": "142210.805000",
        "TransmitCoilName": "Body",
        "VariableFlipAngleFlag": "N",
        "WindowCenterWidthExplanation": "Algo1",
        "dBdt": 0.0
      },
      "slices": {}
    },
    "modality": "bold",
    "run_id": 2,
    "session_id": "nyu3t02",
    "subject_id": "wlsubj114",
    "task_id": "prf",
    "time": {
      "samples": {
        "AcquisitionNumber": [
          1,
          2,
          3,
          4,
          5,
          6,
          7,
          8,
          9,
          10,
          11,
          12,
          13,
          14,
          15,
          16,
          17,
          18,
          19,
          20,
          21,
          22,
          23,
          24,
          25,
          26,
          27,
          28,
          29,
          30,
          31,
          32,
          33,
          34,
          35,
          36,
          37,
          38,
          39,
          40,
          41,
          42,
          43,
          44,
          45,
          46,
          47,
          48,
          49,
          50,
          51,
          52,
          53,
          54,
          55,
          56,
          57,
          58,
          59,
          60,
          61,
          62,
          63,
          64,
          65,
          66,
          67,
          68,
          69,
          70,
          71,
          72,
          73,
          74,
          75,
          76,
          77,
          78,
          79,
          80,
          81,
          82,
          83,
          84,
          85,
          86,
          87,
          88,
          89,
          90,
          91,
          92,
          93,
          94,
          95,
          96,
          97,
          98,
          99,
          100,
          101,
          102,
          103,
          104,
          105,
          106,
          107,
          108,
          109,
          110,
          111,
          112,
          113,
          114,
          115,
          116,
          117,
          118,
          119,
          120,
          121,
          122,
          123,
          124,
          125,
          126,
          127,
          128,
          129,
          130,
          131,
          132,
          133,
          134,
          135,
          136,
          137,
          138,
          139,
          140,
          141,
          142,
          143,
          144,
          145,
          146,
          147,
          148,
          149,
          150,
          151,
          152,
          153,
          154,
          155,
          156,
          157,
          158,
          159,
          160,
          161,
          162,
          163,
          164,
          165,
          166,
          167,
          168,
          169,
          170,
          171,
          172,
          173,
          174,
          175,
          176,
          177,
          178,
          179,
          180,
          181,
          182,
          183,
          184,
          185,
          186,
          187,
          188,
          189,
          190,
          191,
          192
        ],
        "AcquisitionTime": [
          "143054.440000",
          "143055.440000",
          "143056.440000",
          "143057.440000",
          "143058.440000",
          "143059.440000",
          "143100.440000",
          "143101.440000",
          "143102.440000",
          "143103.440000",
          "143104.440000",
          "143105.440000",
          "143106.440000",
          "143107.440000",
          "143108.440000",
          "143109.440000",
          "143110.440000",
          "143111.440000",
          "143112.440000",
          "143113.440000",
          "143114.440000",
          "143115.440000",
          "143116.440000",
          "143117.440000",
          "143118.440000",
          "143119.440000",
          "143120.440000",
          "143121.440000",
          "143122.440000",
          "143123.440000",
          "143124.440000",
          "143125.440000",
          "143126.440000",
          "143127.440000",
          "143128.440000",
          "143129.440000",
          "143130.440000",
          "143131.440000",
          "143132.440000",
          "143133.440000",
          "143134.440000",
          "143135.440000",
          "143136.440000",
          "143137.440000",
          "143138.440000",
          "143139.440000",
          "143140.440000",
          "143141.440000",
          "143142.440000",
          "143143.440000",
          "143144.440000",
          "143145.440000",
          "143146.440000",
          "143147.440000",
          "143148.440000",
          "143149.440000",
          "143150.440000",
          "143151.440000",
          "143152.440000",
          "143153.440000",
          "143154.440000",
          "143155.440000",
          "143156.440000",
          "143157.440000",
          "143158.440000",
          "143159.440000",
          "143200.440000",
          "143201.440000",
          "143202.440000",
          "143203.440000",
          "143204.440000",
          "143205.440000",
          "143206.440000",
          "143207.440000",
          "143208.440000",
          "143209.440000",
          "143210.440000",
          "143211.440000",
          "143212.440000",
          "143213.440000",
          "143214.440000",
          "143215.440000",
          "143216.440000",
          "143217.440000",
          "143218.440000",
          "143219.440000",
          "143220.440000",
          "143221.440000",
          "143222.440000",
          "143223.440000",
          "143224.440000",
          "143225.440000",
          "143226.440000",
          "143227.440000",
          "143228.440000",
          "143229.440000",
          "143230.440000",
          "143231.440000",
          "143232.440000",
          "143233.440000",
          "143234.440000",
          "143235.440000",
          "143236.440000",
          "143237.440000",
          "143238.440000",
          "143239.440000",
          "143240.440000",
          "143241.440000",
          "143242.440000",
          "143243.440000",
          "143244.440000",
          "143245.440000",
          "143246.440000",
          "143247.440000",
          "143248.440000",
          "143249.440000",
          "143250.440000",
          "143251.440000",
          "143252.440000",
          "143253.440000",
          "143254.440000",
          "143255.440000",
          "143256.440000",
          "143257.440000",
          "143258.440000",
          "143259.440000",
          "143300.440000",
          "143301.440000",
          "143302.440000",
          "143303.440000",
          "143304.440000",
          "143305.440000",
          "143306.440000",
          "143307.440000",
          "143308.440000",
          "143309.440000",
          "143310.440000",
          "143311.440000",
          "143312.440000",
          "143313.440000",
          "143314.440000",
          "143315.440000",
          "143316.440000",
          "143317.440000",
          "143318.440000",
          "143319.440000",
          "143320.440000",
          "143321.440000",
          "143322.440000",
          "143323.440000",
          "143324.440000",
          "143325.440000",
          "143326.440000",
          "143327.440000",
          "143328.440000",
          "143329.440000",
          "143330.440000",
          "143331.440000",
          "143332.440000",
          "143333.440000",
          "143334.440000",
          "143335.440000",
          "143336.440000",
          "143337.440000",
          "143338.440000",
          "143339.440000",
          "143340.440000",
          "143341.440000",
          "143342.440000",
          "143343.440000",
          "143344.440000",
          "143345.440000",
          "143346.440000",
          "143347.440000",
          "143348.440000",
          "143349.440000",
          "143350.440000",
          "143351.440000",
          "143352.440000",
          "143353.440000",
          "143354.440000",
          "143355.440000",
          "143356.440000",
          "143357.440000",
          "143358.440000",
          "143359.440000",
          "143400.440000",
          "143401.440000",
          "143402.440000",
          "143403.440000",
          "143404.440000",
          "143405.440000"
        ],
        "ContentTime": [
          "143210.270000",
          "143210.273000",
          "143210.276000",
          "143210.287000",
          "143210.290000",
          "143210.293000",
          "143210.296000",
          "143210.299000",
          "143210.302000",
          "143210.305000",
          "143210.307000",
          "143210.310000",
          "143210.313000",
          "143210.316000",
          "143210.319000",
          "143210.322000",
          "143210.325000",
          "143210.328000",
          "143210.331000",
          "143210.334000",
          "143210.337000",
          "143210.340000",
          "143210.343000",
          "143210.346000",
          "143210.349000",
          "143210.352000",
          "143210.355000",
          "143210.358000",
          "143230.226000",
          "143230.229000",
          "143230.232000",
          "143230.235000",
          "143230.238000",
          "143230.241000",
          "143230.244000",
          "143230.247000",
          "143230.250000",
          "143230.253000",
          "143230.256000",
          "143230.259000",
          "143230.262000",
          "143230.265000",
          "143230.268000",
          "143230.271000",
          "143230.274000",
          "143230.277000",
          "143230.280000",
          "143230.283000",
          "143230.285000",
          "143230.288000",
          "143230.291000",
          "143230.294000",
          "143230.297000",
          "143230.300000",
          "143230.303000",
          "143230.306000",
          "143250.227000",
          "143250.230000",
          "143250.233000",
          "143250.236000",
          "143250.239000",
          "143250.242000",
          "143250.245000",
          "143250.248000",
          "143250.251000",
          "143250.254000",
          "143250.257000",
          "143250.260000",
          "143250.263000",
          "143250.266000",
          "143250.269000",
          "143250.272000",
          "143250.275000",
          "143250.278000",
          "143250.281000",
          "143250.284000",
          "143250.286000",
          "143250.289000",
          "143250.292000",
          "143250.295000",
          "143250.298000",
          "143250.301000",
          "143250.304000",
          "143250.307000",
          "143310.227000",
          "143310.230000",
          "143310.233000",
          "143310.236000",
          "143310.239000",
          "143310.242000",
          "143310.245000",
          "143310.248000",
          "143310.251000",
          "143310.254000",
          "143310.257000",
          "143310.260000",
          "143310.263000",
          "143310.266000",
          "143310.278000",
          "143310.281000",
          "143310.284000",
          "143310.287000",
          "143310.290000",
          "143310.293000",
          "143310.296000",
          "143310.299000",
          "143310.301000",
          "143310.304000",
          "143310.307000",
          "143310.310000",
          "143310.313000",
          "143310.325000",
          "143330.227000",
          "143330.230000",
          "143330.233000",
          "143330.236000",
          "143330.239000",
          "143330.242000",
          "143330.245000",
          "143330.248000",
          "143330.251000",
          "143330.254000",
          "143330.257000",
          "143330.260000",
          "143330.263000",
          "143330.266000",
          "143330.269000",
          "143330.272000",
          "143330.275000",
          "143330.278000",
          "143330.281000",
          "143330.284000",
          "143330.287000",
          "143330.290000",
          "143330.293000",
          "143330.296000",
          "143330.299000",
          "143330.302000",
          "143330.305000",
          "143330.308000",
          "143350.227000",
          "143350.230000",
          "143350.233000",
          "143350.236000",
          "143350.239000",
          "143350.242000",
          "143350.245000",
          "143350.248000",
          "143350.251000",
          "143350.254000",
          "143350.257000",
          "143350.260000",
          "143350.263000",
          "143350.266000",
          "143350.269000",
          "143350.272000",
          "143350.275000",
          "143350.278000",
          "143350.281000",
          "143350.284000",
          "143350.295000",
          "143350.298000",
          "143350.301000",
          "143350.304000",
          "143350.307000",
          "143350.310000",
          "143350.313000",
          "143350.316000",
          "143350.319000",
          "143407.372000",
          "143407.375000",
          "143407.378000",
          "143407.382000",
          "143407.385000",
          "143407.388000",
          "143407.391000",
          "143407.394000",
          "143407.397000",
          "143407.400000",
          "143407.403000",
          "143407.406000",
          "143407.409000",
          "143407.412000",
          "143407.414000",
          "143407.417000",
          "143407.420000",
          "143407.423000",
          "143407.426000",
          "143407.429000",
          "143407.432000",
          "143407.435000",
          "143407.438000"
        ],
        "InstanceCreationTime": [
          "143210.270000",
          "143210.273000",
          "143210.276000",
          "143210.287000",
          "143210.290000",
          "143210.293000",
          "143210.296000",
          "143210.299000",
          "143210.302000",
          "143210.305000",
          "143210.307000",
          "143210.310000",
          "143210.313000",
          "143210.316000",
          "143210.319000",
          "143210.322000",
          "143210.325000",
          "143210.328000",
          "143210.331000",
          "143210.334000",
          "143210.337000",
          "143210.340000",
          "143210.343000",
          "143210.346000",
          "143210.349000",
          "143210.352000",
          "143210.355000",
          "143210.358000",
          "143230.226000",
          "143230.229000",
          "143230.232000",
          "143230.235000",
          "143230.238000",
          "143230.241000",
          "143230.244000",
          "143230.247000",
          "143230.250000",
          "143230.253000",
          "143230.256000",
          "143230.259000",
          "143230.262000",
          "143230.265000",
          "143230.268000",
          "143230.271000",
          "143230.274000",
          "143230.277000",
          "143230.280000",
          "143230.283000",
          "143230.285000",
          "143230.288000",
          "143230.291000",
          "143230.294000",
          "143230.297000",
          "143230.300000",
          "143230.303000",
          "143230.306000",
          "143250.227000",
          "143250.230000",
          "143250.233000",
          "143250.236000",
          "143250.239000",
          "143250.242000",
          "143250.245000",
          "143250.248000",
          "143250.251000",
          "143250.254000",
          "143250.257000",
          "143250.260000",
          "143250.263000",
          "143250.266000",
          "143250.269000",
          "143250.272000",
          "143250.275000",
          "143250.278000",
          "143250.281000",
          "143250.284000",
          "143250.286000",
          "143250.289000",
          "143250.292000",
          "143250.295000",
          "143250.298000",
          "143250.301000",
          "143250.304000",
          "143250.307000",
          "143310.227000",
          "143310.230000",
          "143310.233000",
          "143310.236000",
          "143310.239000",
          "143310.242000",
          "143310.245000",
          "143310.248000",
          "143310.251000",
          "143310.254000",
          "143310.257000",
          "143310.260000",
          "143310.263000",
          "143310.266000",
          "143310.278000",
          "143310.281000",
          "143310.284000",
          "143310.287000",
          "143310.290000",
          "143310.293000",
          "143310.296000",
          "143310.299000",
          "143310.301000",
          "143310.304000",
          "143310.307000",
          "143310.310000",
          "143310.313000",
          "143310.325000",
          "143330.227000",
          "143330.230000",
          "143330.233000",
          "143330.236000",
          "143330.239000",
          "143330.242000",
          "143330.245000",
          "143330.248000",
          "143330.251000",
          "143330.254000",
          "143330.257000",
          "143330.260000",
          "143330.263000",
          "143330.266000",
          "143330.269000",
          "143330.272000",
          "143330.275000",
          "143330.278000",
          "143330.281000",
          "143330.284000",
          "143330.287000",
          "143330.290000",
          "143330.293000",
          "143330.296000",
          "143330.299000",
          "143330.302000",
          "143330.305000",
          "143330.308000",
          "143350.227000",
          "143350.230000",
          "143350.233000",
          "143350.236000",
          "143350.239000",
          "143350.242000",
          "143350.245000",
          "143350.248000",
          "143350.251000",
          "143350.254000",
          "143350.257000",
          "143350.260000",
          "143350.263000",
          "143350.266000",
          "143350.269000",
          "143350.272000",
          "143350.275000",
          "143350.278000",
          "143350.281000",
          "143350.284000",
          "143350.295000",
          "143350.298000",
          "143350.301000",
          "143350.304000",
          "143350.307000",
          "143350.310000",
          "143350.313000",
          "143350.316000",
          "143350.319000",
          "143407.372000",
          "143407.375000",
          "143407.378000",
          "143407.382000",
          "143407.385000",
          "143407.388000",
          "143407.391000",
          "143407.394000",
          "143407.397000",
          "143407.400000",
          "143407.403000",
          "143407.406000",
          "143407.409000",
          "143407.412000",
          "143407.414000",
          "143407.417000",
          "143407.420000",
          "143407.423000",
          "143407.426000",
          "143407.429000",
          "143407.432000",
          "143407.435000",
          "143407.438000"
        ],
        "InstanceNumber": [
          1,
          2,
          3,
          4,
          5,
          6,
          7,
          8,
          9,
          10,
          11,
          12,
          13,
          14,
          15,
          16,
          17,
          18,
          19,
          20,
          21,
          22,
          23,
          24,
          25,
          26,
          27,
          28,
          29,
          30,
          31,
          32,
          33,
          34,
          35,
          36,
          37,
          38,
          39,
          40,
          41,
          42,
          43,
          44,
          45,
          46,
          47,
          48,
          49,
          50,
          51,
          52,
          53,
          54,
          55,
          56,
          57,
          58,
          59,
          60,
          61,
          62,
          63,
          64,
          65,
          66,
          67,
          68,
          69,
          70,
          71,
          72,
          73,
          74,
          75,
          76,
          77,
          78,
          79,
          80,
          81,
          82,
          83,
          84,
          85,
          86,
          87,
          88,
          89,
          90,
          91,
          92,
          93,
          94,
          95,
          96,
          97,
          98,
          99,
          100,
          101,
          102,
          103,
          104,
          105,
          106,
          107,
          108,
          109,
          110,
          111,
          112,
          113,
          114,
          115,
          116,
          117,
          118,
          119,
          120,
          121,
          122,
          123,
          124,
          125,
          126,
          127,
          128,
          129,
          130,
          131,
          132,
          133,
          134,
          135,
          136,
          137,
          138,
          139,
          140,
          141,
          142,
          143,
          144,
          145,
          146,
          147,
          148,
          149,
          150,
          151,
          152,
          153,
          154,
          155,
          156,
          157,
          158,
          159,
          160,
          161,
          162,
          163,
          164,
          165,
          166,
          167,
          168,
          169,
          170,
          171,
          172,
          173,
          174,
          175,
          176,
          177,
          178,
          179,
          180,
          181,
          182,
          183,
          184,
          185,
          186,
          187,
          188,
          189,
          190,
          191,
          192
        ],
        "LargestImagePixelValue": [
          32410,
          31046,
          29825,
          29967,
          29056,
          30070,
          28770,
          30143,
          28934,
          29829,
          28783,
          28925,
          28895,
          29160,
          29934,
          29061,
          28391,
          28688,
          29157,
          28451,
          29027,
          28746,
          28856,
          28251,
          29455,
          28323,
          29735,
          28409,
          29132,
          28312,
          29149,
          28340,
          29143,
          28151,
          28850,
          28164,
          28834,
          28365,
          29251,
          28785,
          28660,
          29234,
          28160,
          29464,
          28498,
          29209,
          29126,
          29100,
          29174,
          27912,
          28904,
          27965,
          28695,
          28616,
          28647,
          29098,
          28851,
          28446,
          28893,
          28149,
          28922,
          28037,
          28203,
          28060,
          28905,
          28695,
          28706,
          28163,
          28444,
          28400,
          28843,
          28004,
          28206,
          28017,
          28555,
          28383,
          28423,
          28284,
