{
  "aor": 0.0009278534031413612,
  "aqi": 0.012905817801047121,
  "bids_meta": {
    "AcquisitionMatrixPE": 104,
    "AcquisitionNumber": 1,
    "AcquisitionTime": "14:44:3.490000",
    "BandwidthPerPixelPhaseEncode": 16.297,
    "BaseResolution": 104,
    "BodyPartExamined": "BRAIN",
    "CogAtlasID": "doi:TODO",
    "ConsistencyInfo": "N4_VE11C_LATEST_20160120",
    "ConversionSoftware": "dcm2niix",
    "ConversionSoftwareVersion": "v1.0.20190902",
    "DerivedVendorReportedEchoSpacing": 0.000590009,
    "DeviceSerialNumber": "166018",
    "DwellTime": 2.1e-06,
    "EchoTime": 0.0376,
    "EchoTrainLength": 104,
    "EffectiveEchoSpacing": 0.000590009,
    "FlipAngle": 68,
    "ImageComments": "Unaliased_MB6_PE3_LB",
    "ImageOrientationPatientDICOM": [
      0.999966,
      -0.00497421,
      0.00660377,
      0.00628303,
      0.976385,
      -0.215949
    ],
    "ImageType": [
      "ORIGINAL",
      "PRIMARY",
      "M",
      "MB",
      "ND",
      "MOSAIC"
    ],
    "ImagingFrequency": 123.191,
    "InPlanePhaseEncodingDirectionDICOM": "COL",
    "InstitutionAddress": "Washington_Place_6_NYC_NYC_US_10003",
    "InstitutionName": "NYU_Center_for_Brain_Imaging",
    "InstitutionalDepartmentName": "Department",
    "MRAcquisitionType": "2D",
    "MagneticFieldStrength": 3,
    "Manufacturer": "Siemens",
    "ManufacturersModelName": "Prisma",
    "Modality": "MR",
    "MultibandAccelerationFactor": 6,
    "NumberOfVolumes": 192,
    "PartialFourier": 1,
    "PatientPosition": "HFS",
    "PercentPhaseFOV": 100,
    "PhaseEncodingDirection": "j",
    "PhaseEncodingSteps": 104,
    "PhaseResolution": 1,
    "PixelBandwidth": 2290,
    "ProcedureStepDescription": "Investigators_Winawer",
    "ProtocolName": "cmrr_mbepi_s6_2mm_66sl_PA_task-prf",
    "PulseSequenceDetails": "%CustomerSeq%_cmrr_mbep2d_bold",
    "ReceiveCoilActiveElements": "HC1-7",
    "ReceiveCoilName": "HeadNeck_64",
    "ReconMatrixPE": 104,
    "RepetitionTime": 1,
    "SAR": 0.0775787,
    "ScanOptions": "FS",
    "ScanningSequence": "EP",
    "SequenceName": "epfid2d1_104",
    "SequenceVariant": "SK_SS",
    "SeriesDescription": "cmrr_mbepi_s6_2mm_66sl_PA_task-prf",
    "SeriesNumber": 16,
    "ShimSetting": [
      248,
      -12599,
      -8432,
      410,
      -68,
      -15,
      -73,
      -19
    ],
    "SliceThickness": 2,
    "SliceTiming": [
      0,
      0.535,
      0.09,
      0.625,
      0.18,
      0.7125,
      0.2675,
      0.8025,
      0.3575,
      0.8925,
      0.445,
      0,
      0.535,
      0.09,
      0.625,
      0.18,
      0.7125,
      0.2675,
      0.8025,
      0.3575,
      0.8925,
      0.445,
      0,
      0.535,
      0.09,
      0.625,
      0.18,
      0.7125,
      0.2675,
      0.8025,
      0.3575,
      0.8925,
      0.445,
      0,
      0.535,
      0.09,
      0.625,
      0.18,
      0.7125,
      0.2675,
      0.8025,
      0.3575,
      0.8925,
      0.445,
      0,
      0.535,
      0.09,
      0.625,
      0.18,
      0.7125,
      0.2675,
      0.8025,
      0.3575,
      0.8925,
      0.445,
      0,
      0.535,
      0.09,
      0.625,
      0.18,
      0.7125,
      0.2675,
      0.8025,
      0.3575,
      0.8925,
      0.445
    ],
    "SoftwareVersions": "syngo_MR_E11",
    "SpacingBetweenSlices": 2,
    "StationName": "AWP166018",
    "TaskName": "prf",
    "TotalReadoutTime": 0.060771,
    "TxRefAmp": 267.495,
    "VendorReportedEchoSpacing": 0.00059,
    "WipMemBlock": "8ef6ec9f-e1da-4b64-ae86-497b89904070||Sequence: R016 ve11c/master r/8780670; Nov 27 2017 15:05:12 by eja",
    "acq_id": "PA",
    "dataset": "unknown",
    "dcmmeta_affine": [
      [
        -1.9999316930770874,
        0.012566065415740013,
        0.010747287422418594,
        105.10359954833984
      ],
      [
        0.009948423132300377,
        1.9527690410614014,
        -0.4319654107093811,
        -64.03707122802734
      ],
      [
        0.013207538984715939,
        0.43189719319343567,
        1.9527647495269775,
        -79.63056182861328
      ],
      [
        0.0,
        0.0,
        0.0,
        1.0
      ]
    ],
    "dcmmeta_reorient_transform": [
      [
        0.0,
        -1.0,
        0.0,
        103.0
      ],
      [
        1.0,
        0.0,
        0.0,
        0.0
      ],
      [
        0.0,
        0.0,
        1.0,
        0.0
      ],
      [
        0.0,
        0.0,
        0.0,
        1.0
      ]
    ],
    "dcmmeta_shape": [
      104,
      104,
      66,
      192
    ],
    "dcmmeta_slice_dim": 2,
    "dcmmeta_version": 0.6,
    "global": {
      "const": {
        "AccessionNumber": "kr5f3gr7",
        "AcquisitionMatrix": [
          104,
          0,
          0,
          104
        ],
        "AngioFlag": "N",
        "BitsAllocated": 16,
        "BitsStored": 16,
        "BodyPartExamined": "BRAIN",
        "Columns": 936,
        "EchoNumbers": 1,
        "EchoTime": 37.6,
        "EchoTrainLength": 104,
        "FlipAngle": 68.0,
        "HighBit": 15,
        "ImageOrientationPatient": [
          0.99996582313977,
          -0.0049742117076,
          0.00660376940018,
          0.00628303279754,
          0.97638451694328,
          -0.215948601691
        ],
        "ImagePositionPatient": [
          -943.59695612437,
          -945.31151405382,
          139.02975176322
        ],
        "ImageType": [
          "ORIGINAL",
          "PRIMARY",
          "M",
          "MB",
          "ND",
          "MOSAIC"
        ],
        "ImagedNucleus": "1H",
        "ImagingFrequency": 123.190615,
        "InPlanePhaseEncodingDirection": "COL",
        "MRAcquisitionType": "2D",
        "MagneticFieldStrength": 3.0,
        "Manufacturer": "SIEMENS",
        "ManufacturerModelName": "Prisma",
        "Modality": "MR",
        "NumberOfAverages": 1.0,
        "NumberOfPhaseEncodingSteps": 104,
        "PercentPhaseFieldOfView": 100.0,
        "PercentSampling": 100.0,
        "PerformedProcedureStepStartTime": "142210.868000",
        "PhotometricInterpretation": "MONOCHROME2",
        "PixelBandwidth": 2290.0,
        "PixelRepresentation": 0,
        "PixelSpacing": [
          2.0,
          2.0
        ],
        "ProtocolName": "cmrr_mbepi_s6_2mm_66sl_PA_task-prf",
        "RepetitionTime": 1000.0,
        "Rows": 936,
        "SAR": 0.07757868287475,
        "SamplesPerPixel": 1,
        "ScanOptions": "FS",
        "ScanningSequence": "EP",
        "SequenceName": "epfid2d1_104",
        "SequenceVariant": [
          "SK",
          "SS"
        ],
        "SeriesDescription": "cmrr_mbepi_s6_2mm_66sl_PA_task-prf",
        "SeriesNumber": 16,
        "SeriesTime": "144510.256000",
        "SliceLocation": -63.354188394136,
        "SliceThickness": 2.0,
        "SmallestImagePixelValue": 0,
        "SoftwareVersions": "syngo MR E11",
        "SpacingBetweenSlices": 1.9999999142616,
        "SpecificCharacterSet": "ISO_IR 100",
        "StudyID": "1",
        "StudyTime": "142210.805000",
        "TransmitCoilName": "Body",
        "VariableFlipAngleFlag": "N",
        "WindowCenterWidthExplanation": "Algo1",
        "dBdt": 0.0
      },
      "slices": {}
    },
    "modality": "bold",
    "run_id": 5,
    "session_id": "nyu3t02",
    "subject_id": "wlsubj114",
    "task_id": "prf",
    "time": {
      "samples": {
        "AcquisitionNumber": [
          1,
          2,
          3,
          4,
          5,
          6,
          7,
          8,
          9,
          10,
          11,
          12,
          13,
          14,
          15,
          16,
          17,
          18,
          19,
          20,
          21,
          22,
          23,
          24,
          25,
          26,
          27,
          28,
          29,
          30,
          31,
          32,
          33,
          34,
          35,
          36,
          37,
          38,
          39,
          40,
          41,
          42,
          43,
          44,
          45,
          46,
          47,
          48,
          49,
          50,
          51,
          52,
          53,
          54,
          55,
          56,
          57,
          58,
          59,
          60,
          61,
          62,
          63,
          64,
          65,
          66,
          67,
          68,
          69,
          70,
          71,
          72,
          73,
          74,
          75,
          76,
          77,
          78,
          79,
          80,
          81,
          82,
          83,
          84,
          85,
          86,
          87,
          88,
          89,
          90,
          91,
          92,
          93,
          94,
          95,
          96,
          97,
          98,
          99,
          100,
          101,
          102,
          103,
          104,
          105,
          106,
          107,
          108,
          109,
          110,
          111,
          112,
          113,
          114,
          115,
          116,
          117,
          118,
          119,
          120,
          121,
          122,
          123,
          124,
          125,
          126,
          127,
          128,
          129,
          130,
          131,
          132,
          133,
          134,
          135,
          136,
          137,
          138,
          139,
          140,
          141,
          142,
          143,
          144,
          145,
          146,
          147,
          148,
          149,
          150,
          151,
          152,
          153,
          154,
          155,
          156,
          157,
          158,
          159,
          160,
          161,
          162,
          163,
          164,
          165,
          166,
          167,
          168,
          169,
          170,
          171,
          172,
          173,
          174,
          175,
          176,
          177,
          178,
          179,
          180,
          181,
          182,
          183,
          184,
          185,
          186,
          187,
          188,
          189,
          190,
          191,
          192
        ],
        "AcquisitionTime": [
          "144403.490000",
          "144404.490000",
          "144405.490000",
          "144406.490000",
          "144407.490000",
          "144408.490000",
          "144409.490000",
          "144410.490000",
          "144411.490000",
          "144412.490000",
          "144413.490000",
          "144414.490000",
          "144415.490000",
          "144416.490000",
          "144417.490000",
          "144418.490000",
          "144419.490000",
          "144420.490000",
          "144421.490000",
          "144422.490000",
          "144423.490000",
          "144424.490000",
          "144425.490000",
          "144426.490000",
          "144427.490000",
          "144428.490000",
          "144429.490000",
          "144430.490000",
          "144431.490000",
          "144432.490000",
          "144433.490000",
          "144434.490000",
          "144435.490000",
          "144436.490000",
          "144437.490000",
          "144438.490000",
          "144439.490000",
          "144440.490000",
          "144441.490000",
          "144442.490000",
          "144443.490000",
          "144444.490000",
          "144445.490000",
          "144446.490000",
          "144447.490000",
          "144448.490000",
          "144449.490000",
          "144450.490000",
          "144451.490000",
          "144452.490000",
          "144453.490000",
          "144454.490000",
          "144455.490000",
          "144456.490000",
          "144457.490000",
          "144458.490000",
          "144459.490000",
          "144500.490000",
          "144501.490000",
          "144502.490000",
          "144503.490000",
          "144504.490000",
          "144505.490000",
          "144506.490000",
          "144507.490000",
          "144508.490000",
          "144509.490000",
          "144510.490000",
          "144511.490000",
          "144512.490000",
          "144513.490000",
          "144514.490000",
          "144515.490000",
          "144516.490000",
          "144517.490000",
          "144518.490000",
          "144519.490000",
          "144520.490000",
          "144521.490000",
          "144522.490000",
          "144523.490000",
          "144524.490000",
          "144525.490000",
          "144526.490000",
          "144527.490000",
          "144528.490000",
          "144529.490000",
          "144530.490000",
          "144531.490000",
          "144532.490000",
          "144533.490000",
          "144534.490000",
          "144535.490000",
          "144536.490000",
          "144537.490000",
          "144538.490000",
          "144539.490000",
          "144540.490000",
          "144541.490000",
          "144542.490000",
          "144543.490000",
          "144544.490000",
          "144545.490000",
          "144546.490000",
          "144547.490000",
          "144548.490000",
          "144549.490000",
          "144550.490000",
          "144551.490000",
          "144552.490000",
          "144553.490000",
          "144554.490000",
          "144555.490000",
          "144556.490000",
          "144557.490000",
          "144558.490000",
          "144559.490000",
          "144600.490000",
          "144601.490000",
          "144602.490000",
          "144603.490000",
          "144604.490000",
          "144605.490000",
          "144606.490000",
          "144607.490000",
          "144608.490000",
          "144609.490000",
          "144610.490000",
          "144611.490000",
          "144612.490000",
          "144613.490000",
          "144614.490000",
          "144615.490000",
          "144616.490000",
          "144617.490000",
          "144618.490000",
          "144619.490000",
          "144620.490000",
          "144621.490000",
          "144622.490000",
          "144623.490000",
          "144624.490000",
          "144625.490000",
          "144626.490000",
          "144627.490000",
          "144628.490000",
          "144629.490000",
          "144630.490000",
          "144631.490000",
          "144632.490000",
          "144633.490000",
          "144634.490000",
          "144635.490000",
          "144636.490000",
          "144637.490000",
          "144638.490000",
          "144639.490000",
          "144640.490000",
          "144641.490000",
          "144642.490000",
          "144643.490000",
          "144644.490000",
          "144645.490000",
          "144646.490000",
          "144647.490000",
          "144648.490000",
          "144649.490000",
          "144650.490000",
          "144651.490000",
          "144652.490000",
          "144653.490000",
          "144654.490000",
          "144655.490000",
          "144656.490000",
          "144657.490000",
          "144658.490000",
          "144659.490000",
          "144700.490000",
          "144701.490000",
          "144702.490000",
          "144703.490000",
          "144704.490000",
          "144705.490000",
          "144706.490000",
          "144707.490000",
          "144708.490000",
          "144709.490000",
          "144710.490000",
          "144711.490000",
          "144712.490000",
          "144713.490000",
          "144714.490000"
        ],
        "ContentTime": [
          "144510.258000",
          "144510.262000",
          "144510.265000",
          "144510.268000",
          "144510.271000",
          "144510.274000",
          "144510.277000",
          "144510.280000",
          "144510.289000",
          "144510.292000",
          "144510.295000",
          "144510.302000",
          "144510.305000",
          "144510.308000",
          "144510.311000",
          "144510.314000",
          "144510.317000",
          "144510.320000",
          "144510.323000",
          "144510.326000",
          "144510.329000",
          "144510.332000",
          "144510.335000",
          "144510.338000",
          "144510.341000",
          "144510.344000",
          "144530.227000",
          "144530.235000",
          "144530.238000",
          "144530.241000",
          "144530.244000",
          "144530.247000",
          "144530.250000",
          "144530.252000",
          "144530.255000",
          "144530.258000",
          "144530.261000",
          "144530.264000",
          "144530.267000",
          "144530.271000",
          "144530.274000",
          "144530.277000",
          "144530.280000",
          "144530.283000",
          "144530.286000",
          "144530.289000",
          "144530.292000",
          "144530.295000",
          "144530.298000",
          "144530.301000",
          "144530.304000",
          "144530.307000",
          "144530.310000",
          "144530.313000",
          "144550.227000",
          "144550.230000",
          "144550.233000",
          "144550.236000",
          "144550.239000",
          "144550.242000",
          "144550.245000",
          "144550.248000",
          "144550.251000",
          "144550.254000",
          "144550.256000",
          "144550.259000",
          "144550.262000",
          "144550.265000",
          "144550.268000",
          "144550.271000",
          "144550.274000",
          "144550.277000",
          "144550.280000",
          "144550.283000",
          "144550.286000",
          "144550.289000",
          "144550.292000",
          "144550.295000",
          "144550.298000",
          "144550.301000",
          "144550.304000",
          "144550.306000",
          "144550.309000",
          "144610.226000",
          "144610.229000",
          "144610.232000",
          "144610.235000",
          "144610.238000",
          "144610.241000",
          "144610.244000",
          "144610.247000",
          "144610.250000",
          "144610.253000",
          "144610.256000",
          "144610.258000",
          "144610.261000",
          "144610.264000",
          "144610.267000",
          "144610.282000",
          "144610.285000",
          "144610.288000",
          "144610.291000",
          "144610.294000",
          "144610.297000",
          "144610.299000",
          "144610.302000",
          "144610.305000",
          "144610.308000",
          "144610.319000",
          "144610.322000",
          "144610.325000",
          "144630.226000",
          "144630.229000",
          "144630.232000",
          "144630.235000",
          "144630.238000",
          "144630.241000",
          "144630.244000",
          "144630.247000",
          "144630.250000",
          "144630.253000",
          "144630.256000",
          "144630.258000",
          "144630.262000",
          "144630.264000",
          "144630.267000",
          "144630.270000",
          "144630.273000",
          "144630.276000",
          "144630.287000",
          "144630.290000",
          "144630.292000",
          "144630.295000",
          "144630.298000",
          "144630.301000",
          "144630.304000",
          "144630.307000",
          "144630.310000",
          "144630.313000",
          "144650.227000",
          "144650.230000",
          "144650.233000",
          "144650.236000",
          "144650.239000",
          "144650.242000",
          "144650.245000",
          "144650.248000",
          "144650.251000",
          "144650.254000",
          "144650.257000",
          "144650.260000",
          "144650.263000",
          "144650.266000",
          "144650.269000",
          "144650.272000",
          "144650.274000",
          "144650.277000",
          "144650.280000",
          "144650.283000",
          "144650.286000",
          "144650.289000",
          "144650.292000",
          "144650.295000",
          "144650.298000",
          "144650.301000",
          "144650.304000",
          "144710.227000",
          "144710.230000",
          "144710.233000",
          "144710.236000",
          "144710.239000",
          "144710.242000",
          "144710.245000",
          "144710.248000",
          "144710.251000",
          "144710.254000",
          "144710.257000",
          "144710.260000",
          "144710.263000",
          "144710.266000",
          "144710.269000",
          "144710.272000",
          "144710.275000",
          "144710.278000",
          "144710.281000",
          "144710.284000",
          "144715.718000",
          "144715.722000",
          "144715.726000",
          "144715.730000",
          "144715.734000",
          "144715.737000"
        ],
        "InstanceCreationTime": [
          "144510.258000",
          "144510.262000",
          "144510.265000",
          "144510.268000",
          "144510.271000",
          "144510.274000",
          "144510.277000",
          "144510.280000",
          "144510.289000",
          "144510.292000",
          "144510.295000",
          "144510.302000",
          "144510.305000",
          "144510.308000",
          "144510.311000",
          "144510.314000",
          "144510.317000",
          "144510.320000",
          "144510.323000",
          "144510.326000",
          "144510.329000",
          "144510.332000",
          "144510.335000",
          "144510.338000",
          "144510.341000",
          "144510.344000",
          "144530.227000",
          "144530.235000",
          "144530.238000",
          "144530.241000",
          "144530.244000",
          "144530.247000",
          "144530.250000",
          "144530.252000",
          "144530.255000",
          "144530.258000",
          "144530.261000",
          "144530.264000",
          "144530.267000",
          "144530.271000",
          "144530.274000",
          "144530.277000",
          "144530.280000",
          "144530.283000",
          "144530.286000",
          "144530.289000",
          "144530.292000",
          "144530.295000",
          "144530.298000",
          "144530.301000",
          "144530.304000",
          "144530.307000",
          "144530.310000",
          "144530.313000",
          "144550.227000",
          "144550.230000",
          "144550.233000",
          "144550.236000",
          "144550.239000",
          "144550.242000",
          "144550.245000",
          "144550.248000",
          "144550.251000",
          "144550.254000",
          "144550.256000",
          "144550.259000",
          "144550.262000",
          "144550.265000",
          "144550.268000",
          "144550.271000",
          "144550.274000",
          "144550.277000",
          "144550.280000",
          "144550.283000",
          "144550.286000",
          "144550.289000",
          "144550.292000",
          "144550.295000",
          "144550.298000",
          "144550.301000",
          "144550.304000",
          "144550.306000",
          "144550.309000",
          "144610.226000",
          "144610.229000",
          "144610.232000",
          "144610.235000",
          "144610.238000",
          "144610.241000",
          "144610.244000",
          "144610.247000",
          "144610.250000",
          "144610.253000",
          "144610.256000",
          "144610.258000",
          "144610.261000",
          "144610.264000",
          "144610.267000",
          "144610.282000",
          "144610.285000",
          "144610.288000",
          "144610.291000",
          "144610.294000",
          "144610.297000",
          "144610.299000",
          "144610.302000",
          "144610.305000",
          "144610.308000",
          "144610.319000",
          "144610.322000",
          "144610.325000",
          "144630.226000",
          "144630.229000",
          "144630.232000",
          "144630.235000",
          "144630.238000",
          "144630.241000",
          "144630.244000",
          "144630.247000",
          "144630.250000",
          "144630.253000",
          "144630.256000",
          "144630.258000",
          "144630.262000",
          "144630.264000",
          "144630.267000",
          "144630.270000",
          "144630.273000",
          "144630.276000",
          "144630.287000",
          "144630.290000",
          "144630.292000",
          "144630.295000",
          "144630.298000",
          "144630.301000",
          "144630.304000",
          "144630.307000",
          "144630.310000",
          "144630.313000",
          "144650.227000",
          "144650.230000",
          "144650.233000",
          "144650.236000",
          "144650.239000",
          "144650.242000",
          "144650.245000",
          "144650.248000",
          "144650.251000",
          "144650.254000",
          "144650.257000",
          "144650.260000",
          "144650.263000",
          "144650.266000",
          "144650.269000",
          "144650.272000",
          "144650.274000",
          "144650.277000",
          "144650.280000",
          "144650.283000",
          "144650.286000",
          "144650.289000",
          "144650.292000",
          "144650.295000",
          "144650.298000",
          "144650.301000",
          "144650.304000",
          "144710.227000",
          "144710.230000",
          "144710.233000",
          "144710.236000",
          "144710.239000",
          "144710.242000",
          "144710.245000",
          "144710.248000",
          "144710.251000",
          "144710.254000",
          "144710.257000",
          "144710.260000",
          "144710.263000",
          "144710.266000",
          "144710.269000",
          "144710.272000",
          "144710.275000",
          "144710.278000",
          "144710.281000",
          "144710.284000",
          "144715.718000",
          "144715.722000",
          "144715.726000",
          "144715.730000",
          "144715.734000",
          "144715.737000"
        ],
        "InstanceNumber": [
          1,
          2,
          3,
          4,
          5,
          6,
          7,
          8,
          9,
          10,
          11,
          12,
          13,
          14,
          15,
          16,
          17,
          18,
          19,
          20,
          21,
          22,
          23,
          24,
          25,
          26,
          27,
          28,
          29,
          30,
          31,
          32,
          33,
          34,
          35,
          36,
          37,
          38,
          39,
          40,
          41,
          42,
          43,
          44,
          45,
          46,
          47,
          48,
          49,
          50,
          51,
          52,
          53,
          54,
          55,
          56,
          57,
          58,
          59,
          60,
          61,
          62,
          63,
          64,
          65,
          66,
          67,
          68,
          69,
          70,
          71,
          72,
          73,
          74,
          75,
          76,
          77,
          78,
          79,
          80,
          81,
          82,
          83,
          84,
          85,
          86,
          87,
          88,
          89,
          90,
          91,
          92,
          93,
          94,
          95,
          96,
          97,
          98,
          99,
          100,
          101,
          102,
          103,
          104,
          105,
          106,
          107,
          108,
          109,
          110,
          111,
          112,
          113,
          114,
          115,
          116,
          117,
          118,
          119,
          120,
          121,
          122,
          123,
          124,
          125,
          126,
          127,
          128,
          129,
          130,
          131,
          132,
          133,
          134,
          135,
          136,
          137,
          138,
          139,
          140,
          141,
          142,
          143,
          144,
          145,
          146,
          147,
          148,
          149,
          150,
          151,
          152,
          153,
          154,
          155,
          156,
          157,
          158,
          159,
          160,
          161,
          162,
          163,
          164,
          165,
          166,
          167,
          168,
          169,
          170,
          171,
          172,
          173,
          174,
          175,
          176,
          177,
          178,
          179,
          180,
          181,
          182,
          183,
          184,
          185,
          186,
          187,
          188,
          189,
          190,
          191,
          192
        ],
        "LargestImagePixelValue": [
          31958,
          31452,
          31150,
          30344,
          30578,
          30723,
          30917,
          30415,
          30751,
          30188,
          30676,
          29845,
          31050,
          30274,
          30637,
          30877,
          30511,
          30706,
          30465,
          30404,
          30285,
          30473,
          30465,
          30448,
          32651,
          30026,
          30085,
          30690,
          30094,
          30193,
          30365,
          30014,
          29851,
          30676,
          30048,
          30244,
          30122,
          30481,
          30104,
          30198,
          30445,
          30260,
          30446,
          30747,
          30034,
          32111,
          30181,
          30268,
          30132,
          30243,
          30271,
          30214,
          30135,
          30217,
          30946,
          30313,
          31285,
          30110,
          32784,
          30303,
          30274,
          30211,
          30169,
          31878,
          31208,
          30283,
          31753,
          30029,
          32219,
          30153,
          29979,
          30528,
          29745,
          31527,
          30411,
          35549,
          30141,
          30041,
          32262,
