{
  "aor": 0.0015382198952879585,
  "aqi": 0.011938931780104713,
  "bids_meta": {
    "AcquisitionMatrixPE": 104,
    "AcquisitionNumber": 1,
    "AcquisitionTime": "15:11:46.562500",
    "BandwidthPerPixelPhaseEncode": 16.297,
    "BaseResolution": 104,
    "BodyPartExamined": "BRAIN",
    "CogAtlasID": "doi:TODO",
    "ConsistencyInfo": "N4_VE11C_LATEST_20160120",
    "ConversionSoftware": "dcm2niix",
    "ConversionSoftwareVersion": "v1.0.20190902",
    "DerivedVendorReportedEchoSpacing": 0.000590009,
    "DeviceSerialNumber": "166018",
    "DwellTime": 2.1e-06,
    "EchoTime": 0.0376,
    "EchoTrainLength": 104,
    "EffectiveEchoSpacing": 0.000590009,
    "FlipAngle": 68,
    "ImageComments": "Unaliased_MB6_PE3_LB",
    "ImageOrientationPatientDICOM": [
      0.999966,
      -0.00497421,
      0.00660377,
      0.00628303,
      0.976385,
      -0.215949
    ],
    "ImageType": [
      "ORIGINAL",
      "PRIMARY",
      "M",
      "MB",
      "ND",
      "MOSAIC"
    ],
    "ImagingFrequency": 123.191,
    "InPlanePhaseEncodingDirectionDICOM": "COL",
    "InstitutionAddress": "Washington_Place_6_NYC_NYC_US_10003",
    "InstitutionName": "NYU_Center_for_Brain_Imaging",
    "InstitutionalDepartmentName": "Department",
    "MRAcquisitionType": "2D",
    "MagneticFieldStrength": 3,
    "Manufacturer": "Siemens",
    "ManufacturersModelName": "Prisma",
    "Modality": "MR",
    "MultibandAccelerationFactor": 6,
    "NumberOfVolumes": 192,
    "PartialFourier": 1,
    "PatientPosition": "HFS",
    "PercentPhaseFOV": 100,
    "PhaseEncodingDirection": "j",
    "PhaseEncodingSteps": 104,
    "PhaseResolution": 1,
    "PixelBandwidth": 2290,
    "ProcedureStepDescription": "Investigators_Winawer",
    "ProtocolName": "cmrr_mbepi_s6_2mm_66sl_PA_task-prf",
    "PulseSequenceDetails": "%CustomerSeq%_cmrr_mbep2d_bold",
    "ReceiveCoilActiveElements": "HC1-7",
    "ReceiveCoilName": "HeadNeck_64",
    "ReconMatrixPE": 104,
    "RepetitionTime": 1,
    "SAR": 0.0775787,
    "ScanOptions": "FS",
    "ScanningSequence": "EP",
    "SequenceName": "epfid2d1_104",
    "SequenceVariant": "SK_SS",
    "SeriesDescription": "cmrr_mbepi_s6_2mm_66sl_PA_task-prf",
    "SeriesNumber": 28,
    "ShimSetting": [
      248,
      -12599,
      -8432,
      410,
      -68,
      -15,
      -73,
      -19
    ],
    "SliceThickness": 2,
    "SliceTiming": [
      0,
      0.535,
      0.0875,
      0.6225,
      0.1775,
      0.7125,
      0.2675,
      0.8,
      0.355,
      0.89,
      0.445,
      0,
      0.535,
      0.0875,
      0.6225,
      0.1775,
      0.7125,
      0.2675,
      0.8,
      0.355,
      0.89,
      0.445,
      0,
      0.535,
      0.0875,
      0.6225,
      0.1775,
      0.7125,
      0.2675,
      0.8,
      0.355,
      0.89,
      0.445,
      0,
      0.535,
      0.0875,
      0.6225,
      0.1775,
      0.7125,
      0.2675,
      0.8,
      0.355,
      0.89,
      0.445,
      0,
      0.535,
      0.0875,
      0.6225,
      0.1775,
      0.7125,
      0.2675,
      0.8,
      0.355,
      0.89,
      0.445,
      0,
      0.535,
      0.0875,
      0.6225,
      0.1775,
      0.7125,
      0.2675,
      0.8,
      0.355,
      0.89,
      0.445
    ],
    "SoftwareVersions": "syngo_MR_E11",
    "SpacingBetweenSlices": 2,
    "StationName": "AWP166018",
    "TaskName": "prf",
    "TotalReadoutTime": 0.060771,
    "TxRefAmp": 267.495,
    "VendorReportedEchoSpacing": 0.00059,
    "WipMemBlock": "8ef6ec9f-e1da-4b64-ae86-497b89904070||Sequence: R016 ve11c/master r/8780670; Nov 27 2017 15:05:12 by eja",
    "acq_id": "PA",
    "dataset": "unknown",
    "dcmmeta_affine": [
      [
        -1.9999316930770874,
        0.012566065415740013,
        0.010747287422418594,
        105.10359954833984
      ],
      [
        0.009948423132300377,
        1.9527690410614014,
        -0.4319654107093811,
        -64.03707122802734
      ],
      [
        0.013207538984715939,
        0.43189719319343567,
        1.9527647495269775,
        -79.63056182861328
      ],
      [
        0.0,
        0.0,
        0.0,
        1.0
      ]
    ],
    "dcmmeta_reorient_transform": [
      [
        0.0,
        -1.0,
        0.0,
        103.0
      ],
      [
        1.0,
        0.0,
        0.0,
        0.0
      ],
      [
        0.0,
        0.0,
        1.0,
        0.0
      ],
      [
        0.0,
        0.0,
        0.0,
        1.0
      ]
    ],
    "dcmmeta_shape": [
      104,
      104,
      66,
      192
    ],
    "dcmmeta_slice_dim": 2,
    "dcmmeta_version": 0.6,
    "global": {
      "const": {
        "AccessionNumber": "kr5f3gr7",
        "AcquisitionMatrix": [
          104,
          0,
          0,
          104
        ],
        "AngioFlag": "N",
        "BitsAllocated": 16,
        "BitsStored": 16,
        "BodyPartExamined": "BRAIN",
        "Columns": 936,
        "EchoNumbers": 1,
        "EchoTime": 37.6,
        "EchoTrainLength": 104,
        "FlipAngle": 68.0,
        "HighBit": 15,
        "ImageOrientationPatient": [
          0.99996582313977,
          -0.0049742117076,
          0.00660376940018,
          0.00628303279754,
          0.97638451694328,
          -0.215948601691
        ],
        "ImagePositionPatient": [
          -943.59695612437,
          -945.31151405382,
          139.02975176322
        ],
        "ImageType": [
          "ORIGINAL",
          "PRIMARY",
          "M",
          "MB",
          "ND",
          "MOSAIC"
        ],
        "ImagedNucleus": "1H",
        "ImagingFrequency": 123.190615,
        "InPlanePhaseEncodingDirection": "COL",
        "MRAcquisitionType": "2D",
        "MagneticFieldStrength": 3.0,
        "Manufacturer": "SIEMENS",
        "ManufacturerModelName": "Prisma",
        "Modality": "MR",
        "NumberOfAverages": 1.0,
        "NumberOfPhaseEncodingSteps": 104,
        "PercentPhaseFieldOfView": 100.0,
        "PercentSampling": 100.0,
        "PerformedProcedureStepStartTime": "142210.868000",
        "PhotometricInterpretation": "MONOCHROME2",
        "PixelBandwidth": 2290.0,
        "PixelRepresentation": 0,
        "PixelSpacing": [
          2.0,
          2.0
        ],
        "ProtocolName": "cmrr_mbepi_s6_2mm_66sl_PA_task-prf",
        "RepetitionTime": 1000.0,
        "Rows": 936,
        "SAR": 0.07757868287475,
        "SamplesPerPixel": 1,
        "ScanOptions": "FS",
        "ScanningSequence": "EP",
        "SequenceName": "epfid2d1_104",
        "SequenceVariant": [
          "SK",
          "SS"
        ],
        "SeriesDescription": "cmrr_mbepi_s6_2mm_66sl_PA_task-prf",
        "SeriesNumber": 28,
        "SeriesTime": "151250.257000",
        "SliceLocation": -63.354188394136,
        "SliceThickness": 2.0,
        "SmallestImagePixelValue": 0,
        "SoftwareVersions": "syngo MR E11",
        "SpacingBetweenSlices": 1.9999999142616,
        "SpecificCharacterSet": "ISO_IR 100",
        "StudyID": "1",
        "StudyTime": "142210.805000",
        "TransmitCoilName": "Body",
        "VariableFlipAngleFlag": "N",
        "WindowCenterWidthExplanation": "Algo1",
        "dBdt": 0.0
      },
      "slices": {}
    },
    "modality": "bold",
    "run_id": 11,
    "session_id": "nyu3t02",
    "subject_id": "wlsubj114",
    "task_id": "prf",
    "time": {
      "samples": {
        "AcquisitionNumber": [
          1,
          2,
          3,
          4,
          5,
          6,
          7,
          8,
          9,
          10,
          11,
          12,
          13,
          14,
          15,
          16,
          17,
          18,
          19,
          20,
          21,
          22,
          23,
          24,
          25,
          26,
          27,
          28,
          29,
          30,
          31,
          32,
          33,
          34,
          35,
          36,
          37,
          38,
          39,
          40,
          41,
          42,
          43,
          44,
          45,
          46,
          47,
          48,
          49,
          50,
          51,
          52,
          53,
          54,
          55,
          56,
          57,
          58,
          59,
          60,
          61,
          62,
          63,
          64,
          65,
          66,
          67,
          68,
          69,
          70,
          71,
          72,
          73,
          74,
          75,
          76,
          77,
          78,
          79,
          80,
          81,
          82,
          83,
          84,
          85,
          86,
          87,
          88,
          89,
          90,
          91,
          92,
          93,
          94,
          95,
          96,
          97,
          98,
          99,
          100,
          101,
          102,
          103,
          104,
          105,
          106,
          107,
          108,
          109,
          110,
          111,
          112,
          113,
          114,
          115,
          116,
          117,
          118,
          119,
          120,
          121,
          122,
          123,
          124,
          125,
          126,
          127,
          128,
          129,
          130,
          131,
          132,
          133,
          134,
          135,
          136,
          137,
          138,
          139,
          140,
          141,
          142,
          143,
          144,
          145,
          146,
          147,
          148,
          149,
          150,
          151,
          152,
          153,
          154,
          155,
          156,
          157,
          158,
          159,
          160,
          161,
          162,
          163,
          164,
          165,
          166,
          167,
          168,
          169,
          170,
          171,
          172,
          173,
          174,
          175,
          176,
          177,
          178,
          179,
          180,
          181,
          182,
          183,
          184,
          185,
          186,
          187,
          188,
          189,
          190,
          191,
          192
        ],
        "AcquisitionTime": [
          "151146.562500",
          "151147.562500",
          "151148.562500",
          "151149.562500",
          "151150.562500",
          "151151.562500",
          "151152.562500",
          "151153.562500",
          "151154.562500",
          "151155.562500",
          "151156.562500",
          "151157.562500",
          "151158.562500",
          "151159.562500",
          "151200.562500",
          "151201.562500",
          "151202.562500",
          "151203.562500",
          "151204.562500",
          "151205.562500",
          "151206.562500",
          "151207.562500",
          "151208.562500",
          "151209.562500",
          "151210.562500",
          "151211.562500",
          "151212.562500",
          "151213.562500",
          "151214.562500",
          "151215.562500",
          "151216.562500",
          "151217.562500",
          "151218.562500",
          "151219.562500",
          "151220.562500",
          "151221.562500",
          "151222.562500",
          "151223.562500",
          "151224.562500",
          "151225.562500",
          "151226.562500",
          "151227.562500",
          "151228.562500",
          "151229.562500",
          "151230.562500",
          "151231.562500",
          "151232.562500",
          "151233.562500",
          "151234.562500",
          "151235.562500",
          "151236.562500",
          "151237.562500",
          "151238.562500",
          "151239.562500",
          "151240.562500",
          "151241.562500",
          "151242.562500",
          "151243.562500",
          "151244.562500",
          "151245.562500",
          "151246.562500",
          "151247.562500",
          "151248.562500",
          "151249.562500",
          "151250.562500",
          "151251.562500",
          "151252.562500",
          "151253.562500",
          "151254.562500",
          "151255.562500",
          "151256.562500",
          "151257.562500",
          "151258.562500",
          "151259.562500",
          "151300.562500",
          "151301.562500",
          "151302.562500",
          "151303.562500",
          "151304.562500",
          "151305.562500",
          "151306.562500",
          "151307.562500",
          "151308.562500",
          "151309.562500",
          "151310.562500",
          "151311.562500",
          "151312.562500",
          "151313.562500",
          "151314.562500",
          "151315.562500",
          "151316.562500",
          "151317.562500",
          "151318.562500",
          "151319.562500",
          "151320.562500",
          "151321.562500",
          "151322.562500",
          "151323.562500",
          "151324.562500",
          "151325.562500",
          "151326.562500",
          "151327.562500",
          "151328.562500",
          "151329.562500",
          "151330.562500",
          "151331.562500",
          "151332.562500",
          "151333.562500",
          "151334.562500",
          "151335.562500",
          "151336.562500",
          "151337.562500",
          "151338.562500",
          "151339.562500",
          "151340.562500",
          "151341.562500",
          "151342.562500",
          "151343.562500",
          "151344.562500",
          "151345.562500",
          "151346.562500",
          "151347.562500",
          "151348.562500",
          "151349.562500",
          "151350.562500",
          "151351.562500",
          "151352.562500",
          "151353.562500",
          "151354.562500",
          "151355.562500",
          "151356.562500",
          "151357.562500",
          "151358.562500",
          "151359.562500",
          "151400.562500",
          "151401.562500",
          "151402.562500",
          "151403.562500",
          "151404.562500",
          "151405.562500",
          "151406.562500",
          "151407.562500",
          "151408.562500",
          "151409.562500",
          "151410.562500",
          "151411.562500",
          "151412.562500",
          "151413.562500",
          "151414.562500",
          "151415.562500",
          "151416.562500",
          "151417.562500",
          "151418.562500",
          "151419.562500",
          "151420.562500",
          "151421.562500",
          "151422.562500",
          "151423.562500",
          "151424.562500",
          "151425.562500",
          "151426.562500",
          "151427.562500",
          "151428.562500",
          "151429.562500",
          "151430.562500",
          "151431.562500",
          "151432.562500",
          "151433.562500",
          "151434.562500",
          "151435.562500",
          "151436.562500",
          "151437.562500",
          "151438.562500",
          "151439.562500",
          "151440.562500",
          "151441.562500",
          "151442.562500",
          "151443.562500",
          "151444.562500",
          "151445.562500",
          "151446.562500",
          "151447.562500",
          "151448.562500",
          "151449.562500",
          "151450.562500",
          "151451.562500",
          "151452.562500",
          "151453.562500",
          "151454.562500",
          "151455.562500",
          "151456.562500",
          "151457.562500"
        ],
        "ContentTime": [
          "151250.260000",
          "151250.263000",
          "151250.266000",
          "151250.269000",
          "151250.272000",
          "151250.275000",
          "151250.278000",
          "151250.286000",
          "151250.289000",
          "151250.292000",
          "151250.295000",
          "151250.298000",
          "151250.301000",
          "151250.304000",
          "151250.307000",
          "151250.310000",
          "151250.313000",
          "151250.316000",
          "151250.319000",
          "151250.322000",
          "151310.227000",
          "151310.230000",
          "151310.233000",
          "151310.236000",
          "151310.239000",
          "151310.242000",
          "151310.245000",
          "151310.248000",
          "151310.251000",
          "151310.254000",
          "151310.256000",
          "151310.259000",
          "151310.262000",
          "151310.265000",
          "151310.268000",
          "151310.271000",
          "151310.286000",
          "151310.296000",
          "151310.299000",
          "151310.302000",
          "151310.305000",
          "151310.308000",
          "151310.311000",
          "151310.313000",
          "151310.316000",
          "151310.319000",
          "151310.322000",
          "151310.325000",
          "151310.328000",
          "151330.227000",
          "151330.230000",
          "151330.233000",
          "151330.236000",
          "151330.239000",
          "151330.242000",
          "151330.245000",
          "151330.248000",
          "151330.251000",
          "151330.254000",
          "151330.256000",
          "151330.259000",
          "151330.262000",
          "151330.265000",
          "151330.268000",
          "151330.271000",
          "151330.274000",
          "151330.277000",
          "151330.280000",
          "151330.283000",
          "151330.286000",
          "151330.289000",
          "151330.292000",
          "151330.295000",
          "151330.298000",
          "151330.301000",
          "151330.304000",
          "151330.307000",
          "151350.227000",
          "151350.230000",
          "151350.233000",
          "151350.236000",
          "151350.239000",
          "151350.242000",
          "151350.245000",
          "151350.248000",
          "151350.251000",
          "151350.254000",
          "151350.256000",
          "151350.259000",
          "151350.262000",
          "151350.265000",
          "151350.268000",
          "151350.271000",
          "151350.274000",
          "151350.277000",
          "151350.280000",
          "151350.283000",
          "151350.286000",
          "151350.289000",
          "151350.292000",
          "151350.295000",
          "151350.298000",
          "151350.301000",
          "151350.304000",
          "151350.307000",
          "151410.226000",
          "151410.229000",
          "151410.232000",
          "151410.235000",
          "151410.238000",
          "151410.241000",
          "151410.244000",
          "151410.247000",
          "151410.250000",
          "151410.253000",
          "151410.256000",
          "151410.259000",
          "151410.262000",
          "151410.264000",
          "151410.272000",
          "151410.275000",
          "151410.277000",
          "151410.280000",
          "151410.283000",
          "151410.287000",
          "151410.289000",
          "151410.292000",
          "151410.295000",
          "151410.298000",
          "151410.301000",
          "151410.304000",
          "151410.307000",
          "151410.310000",
          "151410.313000",
          "151430.227000",
          "151430.230000",
          "151430.233000",
          "151430.236000",
          "151430.239000",
          "151430.242000",
          "151430.245000",
          "151430.248000",
          "151430.251000",
          "151430.254000",
          "151430.257000",
          "151430.260000",
          "151430.263000",
          "151430.266000",
          "151430.269000",
          "151430.272000",
          "151430.275000",
          "151430.278000",
          "151430.281000",
          "151430.284000",
          "151430.287000",
          "151430.290000",
          "151430.293000",
          "151430.295000",
          "151430.298000",
          "151430.301000",
          "151430.304000",
          "151430.307000",
          "151450.227000",
          "151450.230000",
          "151450.233000",
          "151450.236000",
          "151450.239000",
          "151450.242000",
          "151450.245000",
          "151450.248000",
          "151450.251000",
          "151450.254000",
          "151450.257000",
          "151450.260000",
          "151450.263000",
          "151450.266000",
          "151450.269000",
          "151450.272000",
          "151450.275000",
          "151450.277000",
          "151450.280000",
          "151450.283000",
          "151450.286000",
          "151458.992000",
          "151458.995000",
          "151458.998000",
          "151459.003000",
          "151459.006000",
          "151459.009000",
          "151459.012000",
          "151459.015000",
          "151459.018000"
        ],
        "InstanceCreationTime": [
          "151250.260000",
          "151250.263000",
          "151250.266000",
          "151250.269000",
          "151250.272000",
          "151250.275000",
          "151250.278000",
          "151250.286000",
          "151250.289000",
          "151250.292000",
          "151250.295000",
          "151250.298000",
          "151250.301000",
          "151250.304000",
          "151250.307000",
          "151250.310000",
          "151250.313000",
          "151250.316000",
          "151250.319000",
          "151250.322000",
          "151310.227000",
          "151310.230000",
          "151310.233000",
          "151310.236000",
          "151310.239000",
          "151310.242000",
          "151310.245000",
          "151310.248000",
          "151310.251000",
          "151310.254000",
          "151310.256000",
          "151310.259000",
          "151310.262000",
          "151310.265000",
          "151310.268000",
          "151310.271000",
          "151310.286000",
          "151310.296000",
          "151310.299000",
          "151310.302000",
          "151310.305000",
          "151310.308000",
          "151310.311000",
          "151310.313000",
          "151310.316000",
          "151310.319000",
          "151310.322000",
          "151310.325000",
          "151310.328000",
          "151330.227000",
          "151330.230000",
          "151330.233000",
          "151330.236000",
          "151330.239000",
          "151330.242000",
          "151330.245000",
          "151330.248000",
          "151330.251000",
          "151330.254000",
          "151330.256000",
          "151330.259000",
          "151330.262000",
          "151330.265000",
          "151330.268000",
          "151330.271000",
          "151330.274000",
          "151330.277000",
          "151330.280000",
          "151330.283000",
          "151330.286000",
          "151330.289000",
          "151330.292000",
          "151330.295000",
          "151330.298000",
          "151330.301000",
          "151330.304000",
          "151330.307000",
          "151350.227000",
          "151350.230000",
          "151350.233000",
          "151350.236000",
          "151350.239000",
          "151350.242000",
          "151350.245000",
          "151350.248000",
          "151350.251000",
          "151350.254000",
          "151350.256000",
          "151350.259000",
          "151350.262000",
          "151350.265000",
          "151350.268000",
          "151350.271000",
          "151350.274000",
          "151350.277000",
          "151350.280000",
          "151350.283000",
          "151350.286000",
          "151350.289000",
          "151350.292000",
          "151350.295000",
          "151350.298000",
          "151350.301000",
          "151350.304000",
          "151350.307000",
          "151410.226000",
          "151410.229000",
          "151410.232000",
          "151410.235000",
          "151410.238000",
          "151410.241000",
          "151410.244000",
          "151410.247000",
          "151410.250000",
          "151410.253000",
          "151410.256000",
          "151410.259000",
          "151410.262000",
          "151410.264000",
          "151410.272000",
          "151410.275000",
          "151410.277000",
          "151410.280000",
          "151410.283000",
          "151410.287000",
          "151410.289000",
          "151410.292000",
          "151410.295000",
          "151410.298000",
          "151410.301000",
          "151410.304000",
          "151410.307000",
          "151410.310000",
          "151410.313000",
          "151430.227000",
          "151430.230000",
          "151430.233000",
          "151430.236000",
          "151430.239000",
          "151430.242000",
          "151430.245000",
          "151430.248000",
          "151430.251000",
          "151430.254000",
          "151430.257000",
          "151430.260000",
          "151430.263000",
          "151430.266000",
          "151430.269000",
          "151430.272000",
          "151430.275000",
          "151430.278000",
          "151430.281000",
          "151430.284000",
          "151430.287000",
          "151430.290000",
          "151430.293000",
          "151430.295000",
          "151430.298000",
          "151430.301000",
          "151430.304000",
          "151430.307000",
          "151450.227000",
          "151450.230000",
          "151450.233000",
          "151450.236000",
          "151450.239000",
          "151450.242000",
          "151450.245000",
          "151450.248000",
          "151450.251000",
          "151450.254000",
          "151450.257000",
          "151450.260000",
          "151450.263000",
          "151450.266000",
          "151450.269000",
          "151450.272000",
          "151450.275000",
          "151450.277000",
          "151450.280000",
          "151450.283000",
          "151450.286000",
          "151458.992000",
          "151458.995000",
          "151458.998000",
          "151459.003000",
          "151459.006000",
          "151459.009000",
          "151459.012000",
          "151459.015000",
          "151459.018000"
        ],
        "InstanceNumber": [
          1,
          2,
          3,
          4,
          5,
          6,
          7,
          8,
          9,
          10,
          11,
          12,
          13,
          14,
          15,
          16,
          17,
          18,
          19,
          20,
          21,
          22,
          23,
          24,
          25,
          26,
          27,
          28,
          29,
          30,
          31,
          32,
          33,
          34,
          35,
          36,
          37,
          38,
          39,
          40,
          41,
          42,
          43,
          44,
          45,
          46,
          47,
          48,
          49,
          50,
          51,
          52,
          53,
          54,
          55,
          56,
          57,
          58,
          59,
          60,
          61,
          62,
          63,
          64,
          65,
          66,
          67,
          68,
          69,
          70,
          71,
          72,
          73,
          74,
          75,
          76,
          77,
          78,
          79,
          80,
          81,
          82,
          83,
          84,
          85,
          86,
          87,
          88,
          89,
          90,
          91,
          92,
          93,
          94,
          95,
          96,
          97,
          98,
          99,
          100,
          101,
          102,
          103,
          104,
          105,
          106,
          107,
          108,
          109,
          110,
          111,
          112,
          113,
          114,
          115,
          116,
          117,
          118,
          119,
          120,
          121,
          122,
          123,
          124,
          125,
          126,
          127,
          128,
          129,
          130,
          131,
          132,
          133,
          134,
          135,
          136,
          137,
          138,
          139,
          140,
          141,
          142,
          143,
          144,
          145,
          146,
          147,
          148,
          149,
          150,
          151,
          152,
          153,
          154,
          155,
          156,
          157,
          158,
          159,
          160,
          161,
          162,
          163,
          164,
          165,
          166,
          167,
          168,
          169,
          170,
          171,
          172,
          173,
          174,
          175,
          176,
          177,
          178,
          179,
          180,
          181,
          182,
          183,
          184,
          185,
          186,
          187,
          188,
          189,
          190,
          191,
          192
        ],
        "LargestImagePixelValue": [
          29051,
          28687,
          30400,
          28421,
          27921,
          28029,
          28522,
          30592,
          28404,
          28540,
          29296,
          30814,
          28813,
          28163,
          29084,
          28317,
          29378,
          31826,
          28388,
          30055,
          29973,
          28557,
          29718,
          31232,
          29748,
          29483,
          29332,
          27308,
          31180,
          30135,
          28272,
          31504,
          28256,
          30601,
          28501,
          29025,
          30288,
          28968,
          29111,
          28962,
          33693,
          29128,
          29125,
          29877,
          28789,
          29500,
          28920,
          30620,
          29856,
          29176,
          29697,
          28813,
          28779,
          29812,
          31930,
          29956,
          30114,
          29576,
          30240,
          29579,
          29496,
          29777,
          29874,
          29001,
          29914,
          32756,
          29657,
          29239,
          31761,
          29853,
          29607,
          30118,
          31714,
          29546,
          28597,
          29762,
          28070,
          29496,
          27803,
