{
  "aor": 0.0018470680628272253,
  "aqi": 0.015080659685863874,
  "bids_meta": {
    "AcquisitionMatrixPE": 104,
    "AcquisitionNumber": 1,
    "AcquisitionTime": "15:06:37.552500",
    "BandwidthPerPixelPhaseEncode": 16.297,
    "BaseResolution": 104,
    "BodyPartExamined": "BRAIN",
    "CogAtlasID": "doi:TODO",
    "ConsistencyInfo": "N4_VE11C_LATEST_20160120",
    "ConversionSoftware": "dcm2niix",
    "ConversionSoftwareVersion": "v1.0.20190902",
    "DerivedVendorReportedEchoSpacing": 0.000590009,
    "DeviceSerialNumber": "166018",
    "DwellTime": 2.1e-06,
    "EchoTime": 0.0376,
    "EchoTrainLength": 104,
    "EffectiveEchoSpacing": 0.000590009,
    "FlipAngle": 68,
    "ImageComments": "Unaliased_MB6_PE3_LB",
    "ImageOrientationPatientDICOM": [
      0.999966,
      -0.00497421,
      0.00660377,
      0.00628303,
      0.976385,
      -0.215949
    ],
    "ImageType": [
      "ORIGINAL",
      "PRIMARY",
      "M",
      "MB",
      "ND",
      "MOSAIC"
    ],
    "ImagingFrequency": 123.191,
    "InPlanePhaseEncodingDirectionDICOM": "COL",
    "InstitutionAddress": "Washington_Place_6_NYC_NYC_US_10003",
    "InstitutionName": "NYU_Center_for_Brain_Imaging",
    "InstitutionalDepartmentName": "Department",
    "MRAcquisitionType": "2D",
    "MagneticFieldStrength": 3,
    "Manufacturer": "Siemens",
    "ManufacturersModelName": "Prisma",
    "Modality": "MR",
    "MultibandAccelerationFactor": 6,
    "NumberOfVolumes": 192,
    "PartialFourier": 1,
    "PatientPosition": "HFS",
    "PercentPhaseFOV": 100,
    "PhaseEncodingDirection": "j",
    "PhaseEncodingSteps": 104,
    "PhaseResolution": 1,
    "PixelBandwidth": 2290,
    "ProcedureStepDescription": "Investigators_Winawer",
    "ProtocolName": "cmrr_mbepi_s6_2mm_66sl_PA_task-prf",
    "PulseSequenceDetails": "%CustomerSeq%_cmrr_mbep2d_bold",
    "ReceiveCoilActiveElements": "HC1-7",
    "ReceiveCoilName": "HeadNeck_64",
    "ReconMatrixPE": 104,
    "RepetitionTime": 1,
    "SAR": 0.0775787,
    "ScanOptions": "FS",
    "ScanningSequence": "EP",
    "SequenceName": "epfid2d1_104",
    "SequenceVariant": "SK_SS",
    "SeriesDescription": "cmrr_mbepi_s6_2mm_66sl_PA_task-prf",
    "SeriesNumber": 26,
    "ShimSetting": [
      248,
      -12599,
      -8432,
      410,
      -68,
      -15,
      -73,
      -19
    ],
    "SliceThickness": 2,
    "SliceTiming": [
      0,
      0.535,
      0.09,
      0.6225,
      0.1775,
      0.7125,
      0.2675,
      0.8025,
      0.355,
      0.89,
      0.445,
      0,
      0.535,
      0.09,
      0.6225,
      0.1775,
      0.7125,
      0.2675,
      0.8025,
      0.355,
      0.89,
      0.445,
      0,
      0.535,
      0.09,
      0.6225,
      0.1775,
      0.7125,
      0.2675,
      0.8025,
      0.355,
      0.89,
      0.445,
      0,
      0.535,
      0.09,
      0.6225,
      0.1775,
      0.7125,
      0.2675,
      0.8025,
      0.355,
      0.89,
      0.445,
      0,
      0.535,
      0.09,
      0.6225,
      0.1775,
      0.7125,
      0.2675,
      0.8025,
      0.355,
      0.89,
      0.445,
      0,
      0.535,
      0.09,
      0.6225,
      0.1775,
      0.7125,
      0.2675,
      0.8025,
      0.355,
      0.89,
      0.445
    ],
    "SoftwareVersions": "syngo_MR_E11",
    "SpacingBetweenSlices": 2,
    "StationName": "AWP166018",
    "TaskName": "prf",
    "TotalReadoutTime": 0.060771,
    "TxRefAmp": 267.495,
    "VendorReportedEchoSpacing": 0.00059,
    "WipMemBlock": "8ef6ec9f-e1da-4b64-ae86-497b89904070||Sequence: R016 ve11c/master r/8780670; Nov 27 2017 15:05:12 by eja",
    "acq_id": "PA",
    "dataset": "unknown",
    "dcmmeta_affine": [
      [
        -1.9999316930770874,
        0.012566065415740013,
        0.010747287422418594,
        105.10359954833984
      ],
      [
        0.009948423132300377,
        1.9527690410614014,
        -0.4319654107093811,
        -64.03707122802734
      ],
      [
        0.013207538984715939,
        0.43189719319343567,
        1.9527647495269775,
        -79.63056182861328
      ],
      [
        0.0,
        0.0,
        0.0,
        1.0
      ]
    ],
    "dcmmeta_reorient_transform": [
      [
        0.0,
        -1.0,
        0.0,
        103.0
      ],
      [
        1.0,
        0.0,
        0.0,
        0.0
      ],
      [
        0.0,
        0.0,
        1.0,
        0.0
      ],
      [
        0.0,
        0.0,
        0.0,
        1.0
      ]
    ],
    "dcmmeta_shape": [
      104,
      104,
      66,
      192
    ],
    "dcmmeta_slice_dim": 2,
    "dcmmeta_version": 0.6,
    "global": {
      "const": {
        "AccessionNumber": "kr5f3gr7",
        "AcquisitionMatrix": [
          104,
          0,
          0,
          104
        ],
        "AngioFlag": "N",
        "BitsAllocated": 16,
        "BitsStored": 16,
        "BodyPartExamined": "BRAIN",
        "Columns": 936,
        "EchoNumbers": 1,
        "EchoTime": 37.6,
        "EchoTrainLength": 104,
        "FlipAngle": 68.0,
        "HighBit": 15,
        "ImageOrientationPatient": [
          0.99996582313977,
          -0.0049742117076,
          0.00660376940018,
          0.00628303279754,
          0.97638451694328,
          -0.215948601691
        ],
        "ImagePositionPatient": [
          -943.59695612437,
          -945.31151405382,
          139.02975176322
        ],
        "ImageType": [
          "ORIGINAL",
          "PRIMARY",
          "M",
          "MB",
          "ND",
          "MOSAIC"
        ],
        "ImagedNucleus": "1H",
        "ImagingFrequency": 123.190615,
        "InPlanePhaseEncodingDirection": "COL",
        "MRAcquisitionType": "2D",
        "MagneticFieldStrength": 3.0,
        "Manufacturer": "SIEMENS",
        "ManufacturerModelName": "Prisma",
        "Modality": "MR",
        "NumberOfAverages": 1.0,
        "NumberOfPhaseEncodingSteps": 104,
        "PercentPhaseFieldOfView": 100.0,
        "PercentSampling": 100.0,
        "PerformedProcedureStepStartTime": "142210.868000",
        "PhotometricInterpretation": "MONOCHROME2",
        "PixelBandwidth": 2290.0,
        "PixelRepresentation": 0,
        "PixelSpacing": [
          2.0,
          2.0
        ],
        "ProtocolName": "cmrr_mbepi_s6_2mm_66sl_PA_task-prf",
        "RepetitionTime": 1000.0,
        "Rows": 936,
        "SAR": 0.07757868287475,
        "SamplesPerPixel": 1,
        "ScanOptions": "FS",
        "ScanningSequence": "EP",
        "SequenceName": "epfid2d1_104",
        "SequenceVariant": [
          "SK",
          "SS"
        ],
        "SeriesDescription": "cmrr_mbepi_s6_2mm_66sl_PA_task-prf",
        "SeriesNumber": 26,
        "SeriesTime": "150750.189000",
        "SliceLocation": -63.354188394136,
        "SliceThickness": 2.0,
        "SmallestImagePixelValue": 0,
        "SoftwareVersions": "syngo MR E11",
        "SpacingBetweenSlices": 1.9999999142616,
        "SpecificCharacterSet": "ISO_IR 100",
        "StudyID": "1",
        "StudyTime": "142210.805000",
        "TransmitCoilName": "Body",
        "VariableFlipAngleFlag": "N",
        "WindowCenterWidthExplanation": "Algo1",
        "dBdt": 0.0
      },
      "slices": {}
    },
    "modality": "bold",
    "run_id": 10,
    "session_id": "nyu3t02",
    "subject_id": "wlsubj114",
    "task_id": "prf",
    "time": {
      "samples": {
        "AcquisitionNumber": [
          1,
          2,
          3,
          4,
          5,
          6,
          7,
          8,
          9,
          10,
          11,
          12,
          13,
          14,
          15,
          16,
          17,
          18,
          19,
          20,
          21,
          22,
          23,
          24,
          25,
          26,
          27,
          28,
          29,
          30,
          31,
          32,
          33,
          34,
          35,
          36,
          37,
          38,
          39,
          40,
          41,
          42,
          43,
          44,
          45,
          46,
          47,
          48,
          49,
          50,
          51,
          52,
          53,
          54,
          55,
          56,
          57,
          58,
          59,
          60,
          61,
          62,
          63,
          64,
          65,
          66,
          67,
          68,
          69,
          70,
          71,
          72,
          73,
          74,
          75,
          76,
          77,
          78,
          79,
          80,
          81,
          82,
          83,
          84,
          85,
          86,
          87,
          88,
          89,
          90,
          91,
          92,
          93,
          94,
          95,
          96,
          97,
          98,
          99,
          100,
          101,
          102,
          103,
          104,
          105,
          106,
          107,
          108,
          109,
          110,
          111,
          112,
          113,
          114,
          115,
          116,
          117,
          118,
          119,
          120,
          121,
          122,
          123,
          124,
          125,
          126,
          127,
          128,
          129,
          130,
          131,
          132,
          133,
          134,
          135,
          136,
          137,
          138,
          139,
          140,
          141,
          142,
          143,
          144,
          145,
          146,
          147,
          148,
          149,
          150,
          151,
          152,
          153,
          154,
          155,
          156,
          157,
          158,
          159,
          160,
          161,
          162,
          163,
          164,
          165,
          166,
          167,
          168,
          169,
          170,
          171,
          172,
          173,
          174,
          175,
          176,
          177,
          178,
          179,
          180,
          181,
          182,
          183,
          184,
          185,
          186,
          187,
          188,
          189,
          190,
          191,
          192
        ],
        "AcquisitionTime": [
          "150637.552500",
          "150638.552500",
          "150639.552500",
          "150640.552500",
          "150641.552500",
          "150642.552500",
          "150643.552500",
          "150644.552500",
          "150645.552500",
          "150646.552500",
          "150647.552500",
          "150648.552500",
          "150649.552500",
          "150650.552500",
          "150651.552500",
          "150652.552500",
          "150653.552500",
          "150654.552500",
          "150655.552500",
          "150656.552500",
          "150657.552500",
          "150658.552500",
          "150659.552500",
          "150700.552500",
          "150701.552500",
          "150702.552500",
          "150703.552500",
          "150704.552500",
          "150705.552500",
          "150706.552500",
          "150707.552500",
          "150708.552500",
          "150709.552500",
          "150710.552500",
          "150711.552500",
          "150712.552500",
          "150713.552500",
          "150714.552500",
          "150715.552500",
          "150716.552500",
          "150717.552500",
          "150718.552500",
          "150719.552500",
          "150720.552500",
          "150721.552500",
          "150722.552500",
          "150723.552500",
          "150724.552500",
          "150725.552500",
          "150726.552500",
          "150727.552500",
          "150728.552500",
          "150729.552500",
          "150730.552500",
          "150731.552500",
          "150732.552500",
          "150733.552500",
          "150734.552500",
          "150735.552500",
          "150736.552500",
          "150737.552500",
          "150738.552500",
          "150739.552500",
          "150740.552500",
          "150741.552500",
          "150742.552500",
          "150743.552500",
          "150744.552500",
          "150745.552500",
          "150746.552500",
          "150747.552500",
          "150748.552500",
          "150749.552500",
          "150750.552500",
          "150751.552500",
          "150752.552500",
          "150753.552500",
          "150754.552500",
          "150755.552500",
          "150756.552500",
          "150757.552500",
          "150758.552500",
          "150759.552500",
          "150800.552500",
          "150801.552500",
          "150802.552500",
          "150803.552500",
          "150804.552500",
          "150805.552500",
          "150806.552500",
          "150807.552500",
          "150808.552500",
          "150809.552500",
          "150810.552500",
          "150811.552500",
          "150812.552500",
          "150813.552500",
          "150814.552500",
          "150815.552500",
          "150816.552500",
          "150817.552500",
          "150818.552500",
          "150819.552500",
          "150820.552500",
          "150821.552500",
          "150822.552500",
          "150823.552500",
          "150824.552500",
          "150825.552500",
          "150826.552500",
          "150827.552500",
          "150828.552500",
          "150829.552500",
          "150830.552500",
          "150831.552500",
          "150832.552500",
          "150833.552500",
          "150834.552500",
          "150835.552500",
          "150836.552500",
          "150837.552500",
          "150838.552500",
          "150839.552500",
          "150840.552500",
          "150841.552500",
          "150842.552500",
          "150843.552500",
          "150844.552500",
          "150845.552500",
          "150846.552500",
          "150847.552500",
          "150848.552500",
          "150849.552500",
          "150850.552500",
          "150851.552500",
          "150852.552500",
          "150853.552500",
          "150854.552500",
          "150855.552500",
          "150856.552500",
          "150857.552500",
          "150858.552500",
          "150859.552500",
          "150900.552500",
          "150901.552500",
          "150902.552500",
          "150903.552500",
          "150904.552500",
          "150905.552500",
          "150906.552500",
          "150907.552500",
          "150908.552500",
          "150909.552500",
          "150910.552500",
          "150911.552500",
          "150912.552500",
          "150913.552500",
          "150914.552500",
          "150915.552500",
          "150916.552500",
          "150917.552500",
          "150918.552500",
          "150919.552500",
          "150920.552500",
          "150921.552500",
          "150922.552500",
          "150923.552500",
          "150924.552500",
          "150925.552500",
          "150926.552500",
          "150927.552500",
          "150928.552500",
          "150929.552500",
          "150930.552500",
          "150931.552500",
          "150932.552500",
          "150933.552500",
          "150934.552500",
          "150935.552500",
          "150936.552500",
          "150937.552500",
          "150938.552500",
          "150939.552500",
          "150940.552500",
          "150941.552500",
          "150942.552500",
          "150943.552500",
          "150944.552500",
          "150945.552500",
          "150946.552500",
          "150947.552500",
          "150948.552500"
        ],
        "ContentTime": [
          "150750.192000",
          "150750.195000",
          "150750.198000",
          "150750.204000",
          "150750.207000",
          "150750.210000",
          "150750.213000",
          "150750.216000",
          "150750.219000",
          "150750.222000",
          "150750.225000",
          "150750.228000",
          "150750.231000",
          "150750.243000",
          "150750.246000",
          "150750.249000",
          "150750.252000",
          "150750.255000",
          "150750.258000",
          "150750.261000",
          "150750.264000",
          "150750.267000",
          "150750.270000",
          "150750.273000",
          "150810.152000",
          "150810.155000",
          "150810.158000",
          "150810.161000",
          "150810.164000",
          "150810.167000",
          "150810.170000",
          "150810.173000",
          "150810.176000",
          "150810.179000",
          "150810.189000",
          "150810.192000",
          "150810.195000",
          "150810.198000",
          "150810.201000",
          "150810.204000",
          "150810.207000",
          "150810.210000",
          "150810.213000",
          "150810.215000",
          "150810.218000",
          "150810.221000",
          "150810.224000",
          "150810.230000",
          "150810.241000",
          "150810.244000",
          "150810.247000",
          "150810.250000",
          "150830.152000",
          "150830.155000",
          "150830.158000",
          "150830.161000",
          "150830.164000",
          "150830.167000",
          "150830.170000",
          "150830.173000",
          "150830.176000",
          "150830.179000",
          "150830.181000",
          "150830.184000",
          "150830.187000",
          "150830.190000",
          "150830.193000",
          "150830.196000",
          "150830.199000",
          "150830.202000",
          "150830.205000",
          "150830.208000",
          "150830.211000",
          "150830.214000",
          "150830.217000",
          "150830.220000",
          "150830.223000",
          "150830.226000",
          "150830.229000",
          "150830.232000",
          "150830.235000",
          "150850.152000",
          "150850.155000",
          "150850.158000",
          "150850.161000",
          "150850.164000",
          "150850.167000",
          "150850.170000",
          "150850.173000",
          "150850.176000",
          "150850.179000",
          "150850.182000",
          "150850.185000",
          "150850.188000",
          "150850.190000",
          "150850.193000",
          "150850.196000",
          "150850.199000",
          "150850.202000",
          "150850.205000",
          "150850.208000",
          "150850.211000",
          "150850.214000",
          "150850.217000",
          "150850.220000",
          "150850.223000",
          "150850.226000",
          "150850.229000",
          "150850.232000",
          "150910.152000",
          "150910.155000",
          "150910.164000",
          "150910.167000",
          "150910.170000",
          "150910.172000",
          "150910.175000",
          "150910.178000",
          "150910.181000",
          "150910.184000",
          "150910.187000",
          "150910.190000",
          "150910.193000",
          "150910.196000",
          "150910.199000",
          "150910.202000",
          "150910.205000",
          "150910.208000",
          "150910.211000",
          "150910.214000",
          "150910.217000",
          "150910.220000",
          "150910.223000",
          "150910.226000",
          "150910.229000",
          "150910.232000",
          "150910.235000",
          "150910.238000",
          "150930.151000",
          "150930.154000",
          "150930.157000",
          "150930.160000",
          "150930.163000",
          "150930.166000",
          "150930.169000",
          "150930.172000",
          "150930.175000",
          "150930.178000",
          "150930.181000",
          "150930.184000",
          "150930.187000",
          "150930.190000",
          "150930.193000",
          "150930.196000",
          "150930.199000",
          "150930.201000",
          "150930.204000",
          "150930.207000",
          "150930.210000",
          "150930.213000",
          "150930.216000",
          "150930.219000",
          "150930.222000",
          "150930.225000",
          "150930.228000",
          "150930.231000",
          "150949.799000",
          "150949.804000",
          "150949.807000",
          "150949.811000",
          "150949.814000",
          "150949.819000",
          "150949.823000",
          "150949.828000",
          "150949.834000",
          "150949.838000",
          "150949.844000",
          "150949.847000",
          "150949.850000",
          "150949.853000",
          "150949.856000",
          "150949.861000",
          "150949.864000",
          "150949.868000",
          "150949.873000",
          "150949.876000",
          "150949.879000",
          "150949.882000",
          "150949.886000",
          "150949.892000",
          "150949.896000",
          "150949.900000",
          "150949.903000"
        ],
        "InstanceCreationTime": [
          "150750.192000",
          "150750.195000",
          "150750.198000",
          "150750.204000",
          "150750.207000",
          "150750.210000",
          "150750.213000",
          "150750.216000",
          "150750.219000",
          "150750.222000",
          "150750.225000",
          "150750.228000",
          "150750.231000",
          "150750.243000",
          "150750.246000",
          "150750.249000",
          "150750.252000",
          "150750.255000",
          "150750.258000",
          "150750.261000",
          "150750.264000",
          "150750.267000",
          "150750.270000",
          "150750.273000",
          "150810.152000",
          "150810.155000",
          "150810.158000",
          "150810.161000",
          "150810.164000",
          "150810.167000",
          "150810.170000",
          "150810.173000",
          "150810.176000",
          "150810.179000",
          "150810.189000",
          "150810.192000",
          "150810.195000",
          "150810.198000",
          "150810.201000",
          "150810.204000",
          "150810.207000",
          "150810.210000",
          "150810.213000",
          "150810.215000",
          "150810.218000",
          "150810.221000",
          "150810.224000",
          "150810.230000",
          "150810.241000",
          "150810.244000",
          "150810.247000",
          "150810.250000",
          "150830.152000",
          "150830.155000",
          "150830.158000",
          "150830.161000",
          "150830.164000",
          "150830.167000",
          "150830.170000",
          "150830.173000",
          "150830.176000",
          "150830.179000",
          "150830.181000",
          "150830.184000",
          "150830.187000",
          "150830.190000",
          "150830.193000",
          "150830.196000",
          "150830.199000",
          "150830.202000",
          "150830.205000",
          "150830.208000",
          "150830.211000",
          "150830.214000",
          "150830.217000",
          "150830.220000",
          "150830.223000",
          "150830.226000",
          "150830.229000",
          "150830.232000",
          "150830.235000",
          "150850.152000",
          "150850.155000",
          "150850.158000",
          "150850.161000",
          "150850.164000",
          "150850.167000",
          "150850.170000",
          "150850.173000",
          "150850.176000",
          "150850.179000",
          "150850.182000",
          "150850.185000",
          "150850.188000",
          "150850.190000",
          "150850.193000",
          "150850.196000",
          "150850.199000",
          "150850.202000",
          "150850.205000",
          "150850.208000",
          "150850.211000",
          "150850.214000",
          "150850.217000",
          "150850.220000",
          "150850.223000",
          "150850.226000",
          "150850.229000",
          "150850.232000",
          "150910.152000",
          "150910.155000",
          "150910.164000",
          "150910.167000",
          "150910.170000",
          "150910.172000",
          "150910.175000",
          "150910.178000",
          "150910.181000",
          "150910.184000",
          "150910.187000",
          "150910.190000",
          "150910.193000",
          "150910.196000",
          "150910.199000",
          "150910.202000",
          "150910.205000",
          "150910.208000",
          "150910.211000",
          "150910.214000",
          "150910.217000",
          "150910.220000",
          "150910.223000",
          "150910.226000",
          "150910.229000",
          "150910.232000",
          "150910.235000",
          "150910.238000",
          "150930.151000",
          "150930.154000",
          "150930.157000",
          "150930.160000",
          "150930.163000",
          "150930.166000",
          "150930.169000",
          "150930.172000",
          "150930.175000",
          "150930.178000",
          "150930.181000",
          "150930.184000",
          "150930.187000",
          "150930.190000",
          "150930.193000",
          "150930.196000",
          "150930.199000",
          "150930.201000",
          "150930.204000",
          "150930.207000",
          "150930.210000",
          "150930.213000",
          "150930.216000",
          "150930.219000",
          "150930.222000",
          "150930.225000",
          "150930.228000",
          "150930.231000",
          "150949.799000",
          "150949.804000",
          "150949.807000",
          "150949.811000",
          "150949.814000",
          "150949.819000",
          "150949.823000",
          "150949.828000",
          "150949.834000",
          "150949.838000",
          "150949.844000",
          "150949.847000",
          "150949.850000",
          "150949.853000",
          "150949.856000",
          "150949.861000",
          "150949.864000",
          "150949.868000",
          "150949.873000",
          "150949.876000",
          "150949.879000",
          "150949.882000",
          "150949.886000",
          "150949.892000",
          "150949.896000",
          "150949.900000",
          "150949.903000"
        ],
        "InstanceNumber": [
          1,
          2,
          3,
          4,
          5,
          6,
          7,
          8,
          9,
          10,
          11,
          12,
          13,
          14,
          15,
          16,
          17,
          18,
          19,
          20,
          21,
          22,
          23,
          24,
          25,
          26,
          27,
          28,
          29,
          30,
          31,
          32,
          33,
          34,
          35,
          36,
          37,
          38,
          39,
          40,
          41,
          42,
          43,
          44,
          45,
          46,
          47,
          48,
          49,
          50,
          51,
          52,
          53,
          54,
          55,
          56,
          57,
          58,
          59,
          60,
          61,
          62,
          63,
          64,
          65,
          66,
          67,
          68,
          69,
          70,
          71,
          72,
          73,
          74,
          75,
          76,
          77,
          78,
          79,
          80,
          81,
          82,
          83,
          84,
          85,
          86,
          87,
          88,
          89,
          90,
          91,
          92,
          93,
          94,
          95,
          96,
          97,
          98,
          99,
          100,
          101,
          102,
          103,
          104,
          105,
          106,
          107,
          108,
          109,
          110,
          111,
          112,
          113,
          114,
          115,
          116,
          117,
          118,
          119,
          120,
          121,
          122,
          123,
          124,
          125,
          126,
          127,
          128,
          129,
          130,
          131,
          132,
          133,
          134,
          135,
          136,
          137,
          138,
          139,
          140,
          141,
          142,
          143,
          144,
          145,
          146,
          147,
          148,
          149,
          150,
          151,
          152,
          153,
          154,
          155,
          156,
          157,
          158,
          159,
          160,
          161,
          162,
          163,
          164,
          165,
          166,
          167,
          168,
          169,
          170,
          171,
          172,
          173,
          174,
          175,
          176,
          177,
          178,
          179,
          180,
          181,
          182,
          183,
          184,
          185,
          186,
          187,
          188,
          189,
          190,
          191,
          192
        ],
        "LargestImagePixelValue": [
          32224,
          30475,
          30156,
          30002,
          30244,
          29262,
          30738,
          30703,
          29018,
          29435,
          30362,
          30227,
          31274,
          32091,
          28168,
          32527,
          29350,
          30163,
          29195,
          28813,
          29736,
          28472,
          28537,
          29177,
          31765,
          30848,
          31742,
          31066,
          34061,
          28933,
          30920,
          29495,
          29555,
          33218,
          28337,
          32554,
          29063,
          27963,
          29620,
          27757,
          31012,
          28835,
          32068,
          29488,
          28969,
          30391,
          30966,
          28619,
          36961,
          27364,
          28849,
          28821,
          28494,
          28311,
          29262,
          30803,
          31023,
          30549,
          30041,
          28502,
          28294,
          28384,
          28270,
          28344,
          28608,
          28726,
          29524,
          29773,
          30437,
          29801,
          29911,
          29983,
          29854,
          28367,
          28483,
          29180,
          29858,
          29987,
          29910,
