{
  "AcquisitionMatrixPE": 104,
  "AcquisitionNumber": 1,
  "AcquisitionTime": "14:44:48.467500",
  "BandwidthPerPixelPhaseEncode": 16.578,
  "BaseResolution": 104,
  "BodyPartExamined": "BRAIN",
  "ConsistencyInfo": "N4_VE11C_LATEST_20160120",
  "ConversionSoftware": "dcm2niix",
  "ConversionSoftwareVersion": "v1.0.20190902",
  "DerivedVendorReportedEchoSpacing": 0.000580009,
  "DeviceSerialNumber": "166018",
  "DwellTime": 2.1e-06,
  "EchoTime": 0.037,
  "EchoTrainLength": 104,
  "EffectiveEchoSpacing": 0.000580009,
  "FlipAngle": 68,
  "ImageComments": "Unaliased_MB6_PE3_LB",
  "ImageOrientationPatientDICOM": [0.995229, 0.0971268, 0.00926141, -0.0882967, 0.936982, -0.338036],
  "ImageType": [
    "ORIGINAL",
    "PRIMARY",
    "M",
    "MB",
    "ND",
    "MOSAIC"
],
  "ImagingFrequency": 123.191,
  "InPlanePhaseEncodingDirectionDICOM": "COL",
  "InstitutionAddress": "Washington_Place_6_NYC_NYC_US_10003",
  "InstitutionName": "NYU_-_CBI",
  "InstitutionalDepartmentName": "Department",
  "MRAcquisitionType": "2D",
  "MagneticFieldStrength": 3,
  "Manufacturer": "Siemens",
  "ManufacturersModelName": "Prisma",
  "Modality": "MR",
  "MultibandAccelerationFactor": 6,
  "PartialFourier": 1,
  "PatientPosition": "HFS",
  "PercentPhaseFOV": 100,
  "PhaseEncodingDirection": "j",
  "PhaseEncodingSteps": 104,
  "PhaseResolution": 1,
  "PixelBandwidth": 2290,
  "ProcedureStepDescription": "Investigators_Winawer",
  "ProtocolName": "cmrr_mbepi_s6_2mm_66sl_PA_task-prf",
  "PulseSequenceDetails": "%CustomerSeq%_cmrr_mbep2d_bold",
  "ReceiveCoilActiveElements": "HC1-7",
  "ReceiveCoilName": "HeadNeck_64",
  "ReconMatrixPE": 104,
  "RepetitionTime": 1,
  "SAR": 0.0613603,
  "ScanOptions": "FS",
  "ScanningSequence": "EP",
  "SequenceName": "epfid2d1_104",
  "SequenceVariant": "SK_SS",
  "SeriesDescription": "cmrr_mbepi_s6_2mm_66sl_PA_task-prf",
  "SeriesNumber": 16,
  "ShimSetting": [282, -12509, -8541, 233, -34, 145, -218, 24],
  "SliceThickness": 2,
  "SliceTiming": [0, 0.535, 0.09, 0.625, 0.18, 0.715, 0.2675, 0.8025, 0.3575, 0.8925, 0.4475, 0, 0.535, 0.09, 0.625, 0.18, 0.715, 0.2675, 0.8025, 0.3575, 0.8925, 0.4475, 0, 0.535, 0.09, 0.625, 0.18, 0.715, 0.2675, 0.8025, 0.3575, 0.8925, 0.4475, 0, 0.535, 0.09, 0.625, 0.18, 0.715, 0.2675, 0.8025, 0.3575, 0.8925, 0.4475, 0, 0.535, 0.09, 0.625, 0.18, 0.715, 0.2675, 0.8025, 0.3575, 0.8925, 0.4475, 0, 0.535, 0.09, 0.625, 0.18, 0.715, 0.2675, 0.8025, 0.3575, 0.8925, 0.4475],
  "SoftwareVersions": "syngo_MR_E11",
  "SpacingBetweenSlices": 2,
  "StationName": "AWP166018",
  "TaskName": "prf",
  "TotalReadoutTime": 0.0597409,
  "TxRefAmp": 202.47,
  "WipMemBlock": "3763a35e-f073-4bba-9922-188f13fe604f||Sequence: R016 ve11c/master r/8780670; Nov 27 2017 15:05:12 by eja",
  "dcmmeta_affine": [
    [-1.9904578924179077, -0.17659330368041992, 0.08302035182714462, 109.17908477783203],
    [-0.19425363838672638, 1.8739638328552246, -0.6712117791175842, -57.767791748046875],
    [0.01852281205356121, 0.676072895526886, 1.8821748495101929, -72.56938171386719],
    [0.0, 0.0, 0.0, 1.0]
],
  "dcmmeta_reorient_transform": [
    [0.0, -1.0, 0.0, 103.0],
    [1.0, 0.0, 0.0, 0.0],
    [0.0, 0.0, 1.0, 0.0],
    [0.0, 0.0, 0.0, 1.0]
],
  "dcmmeta_shape": [104, 104, 66, 192],
  "dcmmeta_slice_dim": 2,
  "dcmmeta_version": 0.6,
  "global": {
    "const": {
      "AccessionNumber": "k2me5qyk",
      "AcquisitionMatrix": [104, 0, 0, 104],
      "AngioFlag": "N",
      "BitsAllocated": 16,
      "BitsStored": 16,
      "BodyPartExamined": "BRAIN",
      "Columns": 936,
      "EchoNumbers": 1,
      "EchoTime": 37.0,
      "EchoTrainLength": 104,
      "FlipAngle": 68.0,
      "HighBit": 15,
      "ImageOrientationPatient": [0.99522892186994, 0.09712682142501, 0.00926140558799, -0.0882966502962, 0.93698189006321, -0.3380364466149],
      "ImagePositionPatient": [-845.55762851472, -995.62892472934, 270.60696211336],
      "ImageType": [
        "ORIGINAL",
        "PRIMARY",
        "M",
        "MB",
        "ND",
        "MOSAIC"
],
      "ImagedNucleus": "1H",
      "ImagingFrequency": 123.190764,
      "InPlanePhaseEncodingDirection": "COL",
      "MRAcquisitionType": "2D",
      "MagneticFieldStrength": 3.0,
      "Manufacturer": "SIEMENS",
      "ManufacturerModelName": "Prisma",
      "Modality": "MR",
      "NumberOfAverages": 1.0,
      "NumberOfPhaseEncodingSteps": 104,
      "PercentPhaseFieldOfView": 100.0,
      "PercentSampling": 100.0,
      "PerformedProcedureStepStartTime": "142122.244000",
      "PhotometricInterpretation": "MONOCHROME2",
      "PixelBandwidth": 2290.0,
      "PixelRepresentation": 0,
      "PixelSpacing": [2.0, 2.0],
      "ProtocolName": "cmrr_mbepi_s6_2mm_66sl_PA_task-prf",
      "RepetitionTime": 1000.0,
      "Rows": 936,
      "SAR": 0.06136028033921,
      "SamplesPerPixel": 1,
      "ScanOptions": "FS",
      "ScanningSequence": "EP",
      "SequenceName": "epfid2d1_104",
      "SequenceVariant": [
        "SK",
        "SS"
],
      "SeriesDescription": "cmrr_mbepi_s6_2mm_66sl_PA_task-prf",
      "SeriesNumber": 16,
      "SeriesTime": "144612.815000",
      "SliceLocation": -44.37487781962,
      "SliceThickness": 2.0,
      "SmallestImagePixelValue": 0,
      "SoftwareVersions": "syngo MR E11",
      "SpacingBetweenSlices": 1.9999999647652,
      "SpecificCharacterSet": "ISO_IR 100",
      "StudyID": "1",
      "StudyTime": "142122.195000",
      "TransmitCoilName": "Body",
      "VariableFlipAngleFlag": "N",
      "WindowCenterWidthExplanation": "Algo1",
      "dBdt": 0.0},
    "slices": {}
  },
  "time": {
    "samples": {
      "AcquisitionNumber": [1, 2, 3, 4, 5, 6, 7, 8, 9, 10, 11, 12, 13, 14, 15, 16, 17, 18, 19, 20, 21, 22, 23, 24, 25, 26, 27, 28, 29, 30, 31, 32, 33, 34, 35, 36, 37, 38, 39, 40, 41, 42, 43, 44, 45, 46, 47, 48, 49, 50, 51, 52, 53, 54, 55, 56, 57, 58, 59, 60, 61, 62, 63, 64, 65, 66, 67, 68, 69, 70, 71, 72, 73, 74, 75, 76, 77, 78, 79, 80, 81, 82, 83, 84, 85, 86, 87, 88, 89, 90, 91, 92, 93, 94, 95, 96, 97, 98, 99, 100, 101, 102, 103, 104, 105, 106, 107, 108, 109, 110, 111, 112, 113, 114, 115, 116, 117, 118, 119, 120, 121, 122, 123, 124, 125, 126, 127, 128, 129, 130, 131, 132, 133, 134, 135, 136, 137, 138, 139, 140, 141, 142, 143, 144, 145, 146, 147, 148, 149, 150, 151, 152, 153, 154, 155, 156, 157, 158, 159, 160, 161, 162, 163, 164, 165, 166, 167, 168, 169, 170, 171, 172, 173, 174, 175, 176, 177, 178, 179, 180, 181, 182, 183, 184, 185, 186, 187, 188, 189, 190, 191, 192],
      "AcquisitionTime": ["144448.467500", "144449.467500", "144450.467500", "144451.467500", "144452.467500", "144453.467500", "144454.467500", "144455.467500", "144456.467500", "144457.467500", "144458.467500", "144459.467500", "144500.467500", "144501.467500", "144502.467500", "144503.467500", "144504.467500", "144505.467500", "144506.467500", "144507.467500", "144508.467500", "144509.467500", "144510.467500", "144511.467500", "144512.467500", "144513.467500", "144514.467500", "144515.467500", "144516.467500", "144517.467500", "144518.467500", "144519.467500", "144520.467500", "144521.467500", "144522.467500", "144523.467500", "144524.467500", "144525.467500", "144526.467500", "144527.467500", "144528.467500", "144529.467500", "144530.467500", "144531.467500", "144532.467500", "144533.467500", "144534.467500", "144535.467500", "144536.467500", "144537.467500", "144538.467500", "144539.467500", "144540.467500", "144541.467500", "144542.467500", "144543.467500", "144544.467500", "144545.467500", "144546.467500", "144547.467500", "144548.467500", "144549.467500", "144550.467500", "144551.467500", "144552.467500", "144553.467500", "144554.467500", "144555.467500", "144556.467500", "144557.467500", "144558.467500", "144559.467500", "144600.467500", "144601.467500", "144602.467500", "144603.467500", "144604.467500", "144605.467500", "144606.467500", "144607.467500", "144608.467500", "144609.467500", "144610.467500", "144611.467500", "144612.467500", "144613.467500", "144614.467500", "144615.467500", "144616.467500", "144617.467500", "144618.467500", "144619.467500", "144620.467500", "144621.467500", "144622.467500", "144623.467500", "144624.467500", "144625.467500", "144626.467500", "144627.467500", "144628.467500", "144629.467500", "144630.467500", "144631.467500", "144632.467500", "144633.467500", "144634.467500", "144635.467500", "144636.467500", "144637.467500", "144638.467500", "144639.467500", "144640.467500", "144641.467500", "144642.467500", "144643.467500", "144644.467500", "144645.467500", "144646.467500", "144647.467500", "144648.467500", "144649.467500", "144650.467500", "144651.467500", "144652.467500", "144653.467500", "144654.467500", "144655.467500", "144656.467500", "144657.467500", "144658.467500", "144659.467500", "144700.467500", "144701.467500", "144702.467500", "144703.467500", "144704.467500", "144705.467500", "144706.467500", "144707.467500", "144708.467500", "144709.467500", "144710.467500", "144711.467500", "144712.467500", "144713.467500", "144714.467500", "144715.467500", "144716.467500", "144717.467500", "144718.467500", "144719.467500", "144720.467500", "144721.467500", "144722.467500", "144723.467500", "144724.467500", "144725.467500", "144726.467500", "144727.467500", "144728.467500", "144729.467500", "144730.467500", "144731.467500", "144732.467500", "144733.467500", "144734.467500", "144735.467500", "144736.467500", "144737.467500", "144738.467500", "144739.467500", "144740.467500", "144741.467500", "144742.467500", "144743.467500", "144744.467500", "144745.467500", "144746.467500", "144747.467500", "144748.467500", "144749.467500", "144750.467500", "144751.467500", "144752.467500", "144753.467500", "144754.467500", "144755.467500", "144756.467500", "144757.467500", "144758.467500", "144759.467500"],
      "ContentTime": ["144612.818000", "144612.821000", "144612.824000", "144612.827000", "144612.830000", "144612.833000", "144612.836000", "144612.839000", "144612.842000", "144612.845000", "144612.848000", "144612.858000", "144612.861000", "144612.864000", "144612.867000", "144612.870000", "144612.873000", "144612.876000", "144612.879000", "144612.882000", "144612.890000", "144612.893000", "144612.896000", "144612.899000", "144612.902000", "144612.905000", "144612.908000", "144612.911000", "144612.914000", "144612.917000", "144612.920000", "144612.923000", "144612.926000", "144612.929000", "144612.932000", "144612.935000", "144612.938000", "144612.941000", "144612.944000", "144612.947000", "144612.950000", "144632.789000", "144632.792000", "144632.795000", "144632.798000", "144632.809000", "144632.812000", "144632.815000", "144632.818000", "144632.821000", "144632.824000", "144632.827000", "144632.830000", "144632.833000", "144632.836000", "144632.839000", "144632.842000", "144632.845000", "144632.848000", "144632.851000", "144632.854000", "144632.857000", "144632.860000", "144632.863000", "144632.866000", "144632.869000", "144632.872000", "144632.875000", "144632.878000", "144652.789000", "144652.792000", "144652.795000", "144652.798000", "144652.801000", "144652.804000", "144652.807000", "144652.810000", "144652.813000", "144652.816000", "144652.819000", "144652.822000", "144652.825000", "144652.828000", "144652.831000", "144652.834000", "144652.842000", "144652.846000", "144652.849000", "144652.852000", "144652.855000", "144652.858000", "144652.861000", "144652.864000", "144652.867000", "144652.870000", "144652.873000", "144652.876000", "144712.789000", "144712.792000", "144712.795000", "144712.798000", "144712.801000", "144712.804000", "144712.807000", "144712.810000", "144712.813000", "144712.816000", "144712.819000", "144712.822000", "144712.825000", "144712.828000", "144712.831000", "144712.834000", "144712.837000", "144712.840000", "144712.843000", "144712.846000", "144712.849000", "144712.852000", "144712.855000", "144712.858000", "144712.861000", "144712.864000", "144712.867000", "144712.870000", "144732.789000", "144732.792000", "144732.795000", "144732.798000", "144732.801000", "144732.804000", "144732.807000", "144732.819000", "144732.822000", "144732.825000", "144732.828000", "144732.831000", "144732.834000", "144732.837000", "144732.840000", "144732.843000", "144732.846000", "144732.849000", "144732.852000", "144732.855000", "144732.858000", "144732.861000", "144732.864000", "144732.867000", "144732.870000", "144732.873000", "144732.876000", "144732.879000", "144732.882000", "144752.789000", "144752.792000", "144752.795000", "144752.798000", "144752.801000", "144752.804000", "144752.807000", "144752.810000", "144752.813000", "144752.816000", "144752.819000", "144752.822000", "144752.825000", "144752.828000", "144752.831000", "144752.834000", "144752.837000", "144752.840000", "144752.843000", "144752.846000", "144752.849000", "144752.852000", "144752.855000", "144752.858000", "144752.861000", "144752.864000", "144752.867000", "144752.871000", "144801.531000", "144801.535000", "144801.539000", "144801.543000", "144801.546000", "144801.550000", "144801.554000", "144801.558000", "144801.561000", "144801.565000"],
      "InstanceCreationTime": ["144612.818000", "144612.821000", "144612.824000", "144612.827000", "144612.830000", "144612.833000", "144612.836000", "144612.839000", "144612.842000", "144612.845000", "144612.848000", "144612.858000", "144612.861000", "144612.864000", "144612.867000", "144612.870000", "144612.873000", "144612.876000", "144612.879000", "144612.882000", "144612.890000", "144612.893000", "144612.896000", "144612.899000", "144612.902000", "144612.905000", "144612.908000", "144612.911000", "144612.914000", "144612.917000", "144612.920000", "144612.923000", "144612.926000", "144612.929000", "144612.932000", "144612.935000", "144612.938000", "144612.941000", "144612.944000", "144612.947000", "144612.950000", "144632.789000", "144632.792000", "144632.795000", "144632.798000", "144632.809000", "144632.812000", "144632.815000", "144632.818000", "144632.821000", "144632.824000", "144632.827000", "144632.830000", "144632.833000", "144632.836000", "144632.839000", "144632.842000", "144632.845000", "144632.848000", "144632.851000", "144632.854000", "144632.857000", "144632.860000", "144632.863000", "144632.866000", "144632.869000", "144632.872000", "144632.875000", "144632.878000", "144652.789000", "144652.792000", "144652.795000", "144652.798000", "144652.801000", "144652.804000", "144652.807000", "144652.810000", "144652.813000", "144652.816000", "144652.819000", "144652.822000", "144652.825000", "144652.828000", "144652.831000", "144652.834000", "144652.842000", "144652.846000", "144652.849000", "144652.852000", "144652.855000", "144652.858000", "144652.861000", "144652.864000", "144652.867000", "144652.870000", "144652.873000", "144652.876000", "144712.789000", "144712.792000", "144712.795000", "144712.798000", "144712.801000", "144712.804000", "144712.807000", "144712.810000", "144712.813000", "144712.816000", "144712.819000", "144712.822000", "144712.825000", "144712.828000", "144712.831000", "144712.834000", "144712.837000", "144712.840000", "144712.843000", "144712.846000", "144712.849000", "144712.852000", "144712.855000", "144712.858000", "144712.861000", "144712.864000", "144712.867000", "144712.870000", "144732.789000", "144732.792000", "144732.795000", "144732.798000", "144732.801000", "144732.804000", "144732.807000", "144732.819000", "144732.822000", "144732.825000", "144732.828000", "144732.831000", "144732.834000", "144732.837000", "144732.840000", "144732.843000", "144732.846000", "144732.849000", "144732.852000", "144732.855000", "144732.858000", "144732.861000", "144732.864000", "144732.867000", "144732.870000", "144732.873000", "144732.876000", "144732.879000", "144732.882000", "144752.789000", "144752.792000", "144752.795000", "144752.798000", "144752.801000", "144752.804000", "144752.807000", "144752.810000", "144752.813000", "144752.816000", "144752.819000", "144752.822000", "144752.825000", "144752.828000", "144752.831000", "144752.834000", "144752.837000", "144752.840000", "144752.843000", "144752.846000", "144752.849000", "144752.852000", "144752.855000", "144752.858000", "144752.861000", "144752.864000", "144752.867000", "144752.871000", "144801.531000", "144801.535000", "144801.539000", "144801.543000", "144801.546000", "144801.550000", "144801.554000", "144801.558000", "144801.561000", "144801.565000"],
      "InstanceNumber": [1, 2, 3, 4, 5, 6, 7, 8, 9, 10, 11, 12, 13, 14, 15, 16, 17, 18, 19, 20, 21, 22, 23, 24, 25, 26, 27, 28, 29, 30, 31, 32, 33, 34, 35, 36, 37, 38, 39, 40, 41, 42, 43, 44, 45, 46, 47, 48, 49, 50, 51, 52, 53, 54, 55, 56, 57, 58, 59, 60, 61, 62, 63, 64, 65, 66, 67, 68, 69, 70, 71, 72, 73, 74, 75, 76, 77, 78, 79, 80, 81, 82, 83, 84, 85, 86, 87, 88, 89, 90, 91, 92, 93, 94, 95, 96, 97, 98, 99, 100, 101, 102, 103, 104, 105, 106, 107, 108, 109, 110, 111, 112, 113, 114, 115, 116, 117, 118, 119, 120, 121, 122, 123, 124, 125, 126, 127, 128, 129, 130, 131, 132, 133, 134, 135, 136, 137, 138, 139, 140, 141, 142, 143, 144, 145, 146, 147, 148, 149, 150, 151, 152, 153, 154, 155, 156, 157, 158, 159, 160, 161, 162, 163, 164, 165, 166, 167, 168, 169, 170, 171, 172, 173, 174, 175, 176, 177, 178, 179, 180, 181, 182, 183, 184, 185, 186, 187, 188, 189, 190, 191, 192],
      "LargestImagePixelValue": [42814, 42019, 41692, 40591, 40856, 40898, 41003, 40731, 41444, 41215, 40426, 40602, 40512, 40386, 40838, 40571, 40974, 40408, 40800, 40843, 41235, 40878, 41027, 40784, 40641, 40542, 40532, 40539, 40611, 40460, 40539, 40873, 41047, 40917, 40625, 40665, 40926, 40539, 40633, 40572, 40579, 40534, 40634, 40727, 40660, 40748, 40840, 40606, 40310, 40668, 40692, 40305, 40982, 40922, 40752, 40820, 40805, 40444, 40959, 40459, 40383, 40578, 40656, 40577, 40491, 40502, 40811, 40635, 40624, 40785, 40896, 40369, 40696, 40601, 40402, 40706, 40801, 40490, 39954, 40627, 40785, 41145, 40706, 40565, 40736, 40058, 40191, 40336, 40599, 40912, 40952, 40857, 40634, 40687, 40278, 40571, 40866, 40472, 40468, 40473, 40662, 40545, 40578, 40553, 40524, 40937, 40640, 40173, 39986, 40821, 40353, 40074, 40363, 40674, 40653, 40444, 40717, 40371, 40031, 40268, 40896, 40203, 40460, 40776, 40376, 40048, 40577, 40729, 40681, 40390, 40753, 40849, 40580, 40480, 40627, 40302, 40611, 40430, 40581, 40139, 40202, 40682, 40365, 40256, 40121, 40493, 40503, 40435, 40711, 40533, 40502, 40785, 40578, 40790, 40912, 40642, 40543, 40848, 40849, 40750, 40468, 40863, 40961, 40667, 40986, 40909, 40687, 40601, 40708, 40863, 40692, 40869, 40572, 40605, 40767, 41041, 41094, 40825, 40487, 41039, 41397, 40804, 41044, 41363, 40886, 41208, 41565, 41110, 41136, 41786, 41559, 41155],
      "WindowCenter": [10205.0, 10170.0, 10145.0, 10138.0, 10144.0, 10145.0, 10148.0, 10142.0, 10144.0, 10143.0, 10127.0, 10131.0, 10136.0, 10141.0, 10147.0, 10155.0, 10156.0, 10144.0, 10140.0, 10134.0, 10138.0, 10124.0, 10129.0, 10123.0, 10115.0, 10115.0, 10114.0, 10122.0, 10128.0, 10130.0, 10138.0, 10138.0, 10131.0, 10130.0, 10123.0, 10115.0, 10115.0, 10115.0, 10116.0, 10117.0, 10123.0, 10127.0, 10122.0, 10121.0, 10119.0, 10116.0, 10127.0, 10121.0, 10122.0, 10121.0, 10112.0, 10113.0, 10125.0, 10119.0, 10120.0, 10132.0, 10132.0, 10129.0, 10140.0, 10129.0, 10123.0, 10123.0, 10127.0, 10128.0, 10125.0, 10130.0, 10139.0, 10140.0, 10139.0, 10134.0, 10139.0, 10123.0, 10122.0, 10122.0, 10115.0, 10120.0, 10128.0, 10123.0, 10116.0, 10116.0, 10116.0, 10125.0, 10115.0, 10117.0, 10122.0, 10110.0, 10117.0, 10125.0, 10125.0, 10135.0, 10137.0, 10130.0, 10124.0, 10123.0, 10121.0, 10122.0, 10121.0, 10108.0, 10107.0, 10107.0, 10106.0, 10106.0, 10107.0, 10104.0, 10104.0, 10111.0, 10112.0, 10100.0, 10103.0, 10114.0, 10110.0, 10118.0, 10119.0, 10125.0, 10125.0, 10113.0, 10117.0, 10117.0, 10109.0, 10116.0, 10128.0, 10118.0, 10129.0, 10132.0, 10125.0, 10125.0, 10131.0, 10130.0, 10130.0, 10125.0, 10130.0, 10125.0, 10116.0, 10116.0, 10121.0, 10119.0, 10117.0, 10118.0, 10122.0, 10109.0, 10115.0, 10121.0, 10111.0, 10115.0, 10105.0, 10113.0, 10105.0, 10107.0, 10115.0, 10108.0, 10108.0, 10115.0, 10110.0, 10122.0, 10124.0, 10132.0, 10126.0, 10119.0, 10126.0, 10127.0, 10119.0, 10124.0, 10123.0, 10111.0, 10114.0, 10112.0, 10108.0, 10108.0, 10101.0, 10108.0, 10107.0, 10106.0, 10114.0, 10116.0, 10103.0, 10105.0, 10112.0, 10106.0, 10102.0, 10106.0, 10113.0, 10110.0, 10117.0, 10123.0, 10117.0, 10121.0, 10121.0, 10114.0, 10110.0, 10116.0, 10111.0, 10112.0],
      "WindowWidth": [21901.0, 21802.0, 21737.0, 21717.0, 21729.0, 21733.0, 21743.0, 21729.0, 21732.0, 21726.0, 21693.0, 21699.0, 21713.0, 21727.0, 21743.0, 21763.0, 21768.0, 21742.0, 21726.0, 21714.0, 21718.0, 21685.0, 21692.0, 21678.0, 21661.0, 21660.0, 21660.0, 21679.0, 21690.0, 21699.0, 21717.0, 21715.0, 21701.0, 21697.0, 21680.0, 21662.0, 21662.0, 21667.0, 21668.0, 21672.0, 21685.0, 21688.0, 21677.0, 21673.0, 21667.0, 21666.0, 21685.0, 21674.0, 21675.0, 21670.0, 21647.0, 21650.0, 21678.0, 21665.0, 21669.0, 21694.0, 21696.0, 21692.0, 21713.0, 21692.0, 21679.0, 21679.0, 21685.0, 21692.0, 21688.0, 21701.0, 21722.0, 21727.0, 21722.0, 21713.0, 21718.0, 21679.0, 21677.0, 21674.0, 21657.0, 21670.0, 21689.0, 21678.0, 21662.0, 21662.0, 21661.0, 21677.0, 21661.0, 21666.0, 21677.0, 21653.0, 21671.0, 21691.0, 21689.0, 21711.0, 21714.0, 21698.0, 21686.0, 21682.0, 21676.0, 21678.0, 21671.0, 21640.0, 21637.0, 21639.0, 21635.0, 21639.0, 21640.0, 21631.0, 21631.0, 21647.0, 21649.0, 21626.0, 21639.0, 21660.0, 21657.0, 21675.0, 21680.0, 21694.0, 21691.0, 21663.0, 21669.0, 21667.0, 21648.0, 21664.0, 21689.0, 21668.0, 21694.0, 21703.0, 21686.0, 21685.0, 21696.0, 21693.0, 21692.0, 21682.0, 21694.0, 21684.0, 21664.0, 21665.0, 21677.0, 21676.0, 21670.0, 21672.0, 21677.0, 21647.0, 21657.0, 21670.0, 21650.0, 21654.0, 21636.0, 21650.0, 21632.0, 21640.0, 21659.0, 21644.0, 21644.0, 21658.0, 21649.0, 21675.0, 21682.0, 21702.0, 21691.0, 21676.0, 21692.0, 21694.0, 21675.0, 21683.0, 21679.0, 21652.0, 21654.0, 21645.0, 21640.0, 21640.0, 21626.0, 21640.0, 21635.0, 21633.0, 21653.0, 21658.0, 21629.0, 21630.0, 21645.0, 21631.0, 21627.0, 21634.0, 21652.0, 21650.0, 21666.0, 21680.0, 21665.0, 21673.0, 21670.0, 21651.0, 21637.0, 21647.0, 21641.0, 21645.0]
    },
    "slices": {}
  },
  "NumberOfVolumes": 192
}