{
  "AcquisitionMatrixPE": 104,
  "AcquisitionNumber": 1,
  "AcquisitionTime": "17:28:16.365000",
  "BandwidthPerPixelPhaseEncode": 16.578,
  "BaseResolution": 104,
  "BodyPartExamined": "BRAIN",
  "ConsistencyInfo": "N4_VE11C_LATEST_20160120",
  "ConversionSoftware": "dcm2niix",
  "ConversionSoftwareVersion": "v1.0.20190902",
  "DerivedVendorReportedEchoSpacing": 0.000580009,
  "DeviceSerialNumber": "166018",
  "DwellTime": 2.1e-06,
  "EchoTime": 0.037,
  "EchoTrainLength": 104,
  "EffectiveEchoSpacing": 0.000580009,
  "FlipAngle": 68,
  "ImageComments": "Unaliased_MB6_PE3_LB",
  "ImageOrientationPatientDICOM": [0.999994, 0.00049522, 0.00344817, 0.000523572, 0.957233, -0.289316],
  "ImageType": [
    "ORIGINAL",
    "PRIMARY",
    "M",
    "MB",
    "ND",
    "MOSAIC"
],
  "ImagingFrequency": 123.191,
  "InPlanePhaseEncodingDirectionDICOM": "COL",
  "InstitutionAddress": "Washington_Place_6_NYC_NYC_US_10003",
  "InstitutionName": "NYU_Center_for_Brain_Imaging",
  "InstitutionalDepartmentName": "Department",
  "MRAcquisitionType": "2D",
  "MagneticFieldStrength": 3,
  "Manufacturer": "Siemens",
  "ManufacturersModelName": "Prisma",
  "Modality": "MR",
  "MultibandAccelerationFactor": 6,
  "PartialFourier": 1,
  "PatientPosition": "HFS",
  "PercentPhaseFOV": 100,
  "PhaseEncodingDirection": "j",
  "PhaseEncodingSteps": 104,
  "PhaseResolution": 1,
  "PixelBandwidth": 2290,
  "ProcedureStepDescription": "Investigators_Winawer",
  "ProtocolName": "cmrr_mbepi_s6_2mm_66sl_PA_task-prf",
  "PulseSequenceDetails": "%CustomerSeq%_cmrr_mbep2d_bold",
  "ReceiveCoilActiveElements": "HC1-7",
  "ReceiveCoilName": "HeadNeck_64",
  "ReconMatrixPE": 104,
  "RepetitionTime": 1,
  "SAR": 0.0603576,
  "ScanOptions": "FS",
  "ScanningSequence": "EP",
  "SequenceName": "epfid2d1_104",
  "SequenceVariant": "SK_SS",
  "SeriesDescription": "cmrr_mbepi_s6_2mm_66sl_PA_task-prf",
  "SeriesNumber": 8,
  "ShimSetting": [242, -12614, -8495, 413, -56, 140, -157, 19],
  "SliceThickness": 2,
  "SliceTiming": [0, 0.535, 0.09, 0.625, 0.18, 0.7125, 0.2675, 0.8025, 0.3575, 0.8925, 0.445, 0, 0.535, 0.09, 0.625, 0.18, 0.7125, 0.2675, 0.8025, 0.3575, 0.8925, 0.445, 0, 0.535, 0.09, 0.625, 0.18, 0.7125, 0.2675, 0.8025, 0.3575, 0.8925, 0.445, 0, 0.535, 0.09, 0.625, 0.18, 0.7125, 0.2675, 0.8025, 0.3575, 0.8925, 0.445, 0, 0.535, 0.09, 0.625, 0.18, 0.7125, 0.2675, 0.8025, 0.3575, 0.8925, 0.445, 0, 0.535, 0.09, 0.625, 0.18, 0.7125, 0.2675, 0.8025, 0.3575, 0.8925, 0.445],
  "SoftwareVersions": "syngo_MR_E11",
  "SpacingBetweenSlices": 2,
  "StationName": "AWP166018",
  "TaskName": "prf",
  "TotalReadoutTime": 0.0597409,
  "TxRefAmp": 213.445,
  "WipMemBlock": "be6da9ce-12d5-4b28-82cb-6e292074ef89||Sequence: R016 ve11c/master r/8780670; Nov 27 2017 15:05:12 by eja",
  "dcmmeta_affine": [
    [-1.9999878406524658, 0.0010471435962244868, 0.006887949071824551, 108.51509094238281],
    [-0.0009904401376843452, 1.9144669771194458, -0.5786323547363281, -70.68016815185547],
    [0.00689633097499609, 0.5786322355270386, 1.9144548177719116, -76.74503326416016],
    [0.0, 0.0, 0.0, 1.0]
],
  "dcmmeta_reorient_transform": [
    [0.0, -1.0, 0.0, 103.0],
    [1.0, 0.0, 0.0, 0.0],
    [0.0, 0.0, 1.0, 0.0],
    [0.0, 0.0, 0.0, 1.0]
],
  "dcmmeta_shape": [104, 104, 66, 192],
  "dcmmeta_slice_dim": 2,
  "dcmmeta_version": 0.6,
  "global": {
    "const": {
      "AccessionNumber": "juLLh44k",
      "AcquisitionMatrix": [104, 0, 0, 104],
      "AngioFlag": "N",
      "BitsAllocated": 16,
      "BitsStored": 16,
      "BodyPartExamined": "BRAIN",
      "Columns": 936,
      "EchoNumbers": 1,
      "EchoTime": 37.0,
      "EchoTrainLength": 104,
      "FlipAngle": 68.0,
      "HighBit": 15,
      "ImageOrientationPatient": [0.99999393243719, 0.0004952200849, 0.00344816557976, 0.0005235718208, 0.95723346644146, -0.2893161187992],
      "ImagePositionPatient": [-941.05351392933, -923.3401956845, 220.6962216572],
      "ImageType": [
        "ORIGINAL",
        "PRIMARY",
        "M",
        "MB",
        "ND",
        "MOSAIC"
],
      "ImagedNucleus": "1H",
      "ImagingFrequency": 123.191074,
      "InPlanePhaseEncodingDirection": "COL",
      "MRAcquisitionType": "2D",
      "MagneticFieldStrength": 3.0,
      "Manufacturer": "SIEMENS",
      "ManufacturerModelName": "Prisma",
      "Modality": "MR",
      "NumberOfAverages": 1.0,
      "NumberOfPhaseEncodingSteps": 104,
      "PercentPhaseFieldOfView": 100.0,
      "PercentSampling": 100.0,
      "PerformedProcedureStepStartTime": "171417.341000",
      "PhotometricInterpretation": "MONOCHROME2",
      "PixelBandwidth": 2290.0,
      "PixelRepresentation": 0,
      "PixelSpacing": [2.0, 2.0],
      "ProtocolName": "cmrr_mbepi_s6_2mm_66sl_PA_task-prf",
      "RepetitionTime": 1000.0,
      "Rows": 936,
      "SAR": 0.06035761134849,
      "SamplesPerPixel": 1,
      "ScanOptions": "FS",
      "ScanningSequence": "EP",
      "SequenceName": "epfid2d1_104",
      "SequenceVariant": [
        "SK",
        "SS"
],
      "SeriesDescription": "cmrr_mbepi_s6_2mm_66sl_PA_task-prf",
      "SeriesNumber": 8,
      "SeriesTime": "172937.088000",
      "SliceLocation": -52.639813153631,
      "SliceThickness": 2.0,
      "SmallestImagePixelValue": 0,
      "SoftwareVersions": "syngo MR E11",
      "SpacingBetweenSlices": 1.9999999805911,
      "SpecificCharacterSet": "ISO_IR 100",
      "StudyID": "1",
      "StudyTime": "171417.280000",
      "TransmitCoilName": "Body",
      "VariableFlipAngleFlag": "N",
      "WindowCenterWidthExplanation": "Algo1",
      "dBdt": 0.0},
    "slices": {}
  },
  "time": {
    "samples": {
      "AcquisitionNumber": [1, 2, 3, 4, 5, 6, 7, 8, 9, 10, 11, 12, 13, 14, 15, 16, 17, 18, 19, 20, 21, 22, 23, 24, 25, 26, 27, 28, 29, 30, 31, 32, 33, 34, 35, 36, 37, 38, 39, 40, 41, 42, 43, 44, 45, 46, 47, 48, 49, 50, 51, 52, 53, 54, 55, 56, 57, 58, 59, 60, 61, 62, 63, 64, 65, 66, 67, 68, 69, 70, 71, 72, 73, 74, 75, 76, 77, 78, 79, 80, 81, 82, 83, 84, 85, 86, 87, 88, 89, 90, 91, 92, 93, 94, 95, 96, 97, 98, 99, 100, 101, 102, 103, 104, 105, 106, 107, 108, 109, 110, 111, 112, 113, 114, 115, 116, 117, 118, 119, 120, 121, 122, 123, 124, 125, 126, 127, 128, 129, 130, 131, 132, 133, 134, 135, 136, 137, 138, 139, 140, 141, 142, 143, 144, 145, 146, 147, 148, 149, 150, 151, 152, 153, 154, 155, 156, 157, 158, 159, 160, 161, 162, 163, 164, 165, 166, 167, 168, 169, 170, 171, 172, 173, 174, 175, 176, 177, 178, 179, 180, 181, 182, 183, 184, 185, 186, 187, 188, 189, 190, 191, 192],
      "AcquisitionTime": ["172816.365000", "172817.365000", "172818.365000", "172819.365000", "172820.365000", "172821.365000", "172822.365000", "172823.365000", "172824.365000", "172825.365000", "172826.365000", "172827.365000", "172828.365000", "172829.365000", "172830.365000", "172831.365000", "172832.365000", "172833.365000", "172834.365000", "172835.365000", "172836.365000", "172837.365000", "172838.365000", "172839.365000", "172840.365000", "172841.365000", "172842.365000", "172843.365000", "172844.365000", "172845.365000", "172846.365000", "172847.365000", "172848.365000", "172849.365000", "172850.365000", "172851.365000", "172852.365000", "172853.365000", "172854.365000", "172855.365000", "172856.365000", "172857.365000", "172858.365000", "172859.365000", "172900.365000", "172901.365000", "172902.365000", "172903.365000", "172904.365000", "172905.365000", "172906.365000", "172907.365000", "172908.365000", "172909.365000", "172910.365000", "172911.365000", "172912.365000", "172913.365000", "172914.365000", "172915.365000", "172916.365000", "172917.365000", "172918.365000", "172919.365000", "172920.365000", "172921.365000", "172922.365000", "172923.365000", "172924.365000", "172925.365000", "172926.365000", "172927.365000", "172928.365000", "172929.365000", "172930.365000", "172931.365000", "172932.365000", "172933.365000", "172934.365000", "172935.365000", "172936.365000", "172937.365000", "172938.365000", "172939.365000", "172940.365000", "172941.365000", "172942.365000", "172943.365000", "172944.365000", "172945.365000", "172946.365000", "172947.365000", "172948.365000", "172949.365000", "172950.365000", "172951.365000", "172952.365000", "172953.365000", "172954.365000", "172955.365000", "172956.365000", "172957.365000", "172958.365000", "172959.365000", "173000.365000", "173001.365000", "173002.365000", "173003.365000", "173004.365000", "173005.365000", "173006.365000", "173007.365000", "173008.365000", "173009.365000", "173010.365000", "173011.365000", "173012.365000", "173013.365000", "173014.365000", "173015.365000", "173016.365000", "173017.365000", "173018.365000", "173019.365000", "173020.365000", "173021.365000", "173022.365000", "173023.365000", "173024.365000", "173025.365000", "173026.365000", "173027.365000", "173028.365000", "173029.365000", "173030.365000", "173031.365000", "173032.365000", "173033.365000", "173034.365000", "173035.365000", "173036.365000", "173037.365000", "173038.365000", "173039.365000", "173040.365000", "173041.365000", "173042.365000", "173043.365000", "173044.365000", "173045.365000", "173046.365000", "173047.365000", "173048.365000", "173049.365000", "173050.365000", "173051.365000", "173052.365000", "173053.365000", "173054.365000", "173055.365000", "173056.365000", "173057.365000", "173058.365000", "173059.365000", "173100.365000", "173101.365000", "173102.365000", "173103.365000", "173104.365000", "173105.365000", "173106.365000", "173107.365000", "173108.365000", "173109.365000", "173110.365000", "173111.365000", "173112.365000", "173113.365000", "173114.365000", "173115.365000", "173116.365000", "173117.365000", "173118.365000", "173119.365000", "173120.365000", "173121.365000", "173122.365000", "173123.365000", "173124.365000", "173125.365000", "173126.365000", "173127.365000"],
      "ContentTime": ["172937.091000", "172937.094000", "172937.097000", "172937.100000", "172937.103000", "172937.106000", "172937.109000", "172937.112000", "172937.114000", "172937.117000", "172937.120000", "172937.123000", "172937.126000", "172937.129000", "172937.132000", "172937.140000", "172937.143000", "172937.146000", "172937.149000", "172937.152000", "172937.155000", "172937.157000", "172937.160000", "172937.163000", "172937.166000", "172937.169000", "172937.172000", "172937.180000", "172937.183000", "172937.185000", "172937.188000", "172937.191000", "172937.194000", "172937.197000", "172937.200000", "172937.203000", "172957.065000", "172957.068000", "172957.071000", "172957.074000", "172957.077000", "172957.079000", "172957.082000", "172957.085000", "172957.088000", "172957.091000", "172957.106000", "172957.109000", "172957.112000", "172957.114000", "172957.117000", "172957.120000", "172957.123000", "172957.126000", "172957.128000", "172957.131000", "172957.134000", "172957.137000", "172957.140000", "172957.143000", "172957.145000", "172957.148000", "172957.151000", "172957.154000", "173017.065000", "173017.068000", "173017.071000", "173017.073000", "173017.076000", "173017.079000", "173017.082000", "173017.085000", "173017.088000", "173017.091000", "173017.093000", "173017.096000", "173017.099000", "173017.102000", "173017.105000", "173017.108000", "173017.111000", "173017.113000", "173017.116000", "173017.126000", "173017.129000", "173017.132000", "173017.135000", "173017.138000", "173017.140000", "173017.143000", "173017.146000", "173017.149000", "173037.064000", "173037.067000", "173037.070000", "173037.073000", "173037.075000", "173037.078000", "173037.092000", "173037.094000", "173037.097000", "173037.100000", "173037.103000", "173037.106000", "173037.109000", "173037.112000", "173037.115000", "173037.117000", "173037.120000", "173037.123000", "173037.126000", "173037.129000", "173037.132000", "173037.135000", "173037.137000", "173037.140000", "173037.143000", "173037.146000", "173037.149000", "173037.152000", "173037.155000", "173057.064000", "173057.067000", "173057.070000", "173057.072000", "173057.075000", "173057.078000", "173057.081000", "173057.084000", "173057.087000", "173057.090000", "173057.093000", "173057.095000", "173057.098000", "173057.101000", "173057.104000", "173057.107000", "173057.110000", "173057.113000", "173057.115000", "173057.118000", "173057.121000", "173057.124000", "173057.127000", "173057.130000", "173057.133000", "173057.136000", "173057.138000", "173057.141000", "173117.065000", "173117.068000", "173117.071000", "173117.074000", "173117.076000", "173117.079000", "173117.082000", "173117.085000", "173117.088000", "173117.091000", "173117.100000", "173117.103000", "173117.106000", "173117.109000", "173117.111000", "173117.114000", "173117.117000", "173117.120000", "173117.123000", "173117.126000", "173117.129000", "173117.131000", "173117.134000", "173117.137000", "173117.140000", "173117.143000", "173117.146000", "173117.149000", "173129.060000", "173129.063000", "173129.066000", "173129.069000", "173129.072000", "173129.075000", "173129.078000", "173129.080000", "173129.083000", "173129.086000", "173129.089000", "173129.092000", "173129.095000", "173129.098000", "173129.101000"],
      "InstanceCreationTime": ["172937.091000", "172937.094000", "172937.097000", "172937.100000", "172937.103000", "172937.106000", "172937.109000", "172937.112000", "172937.114000", "172937.117000", "172937.120000", "172937.123000", "172937.126000", "172937.129000", "172937.132000", "172937.140000", "172937.143000", "172937.146000", "172937.149000", "172937.152000", "172937.155000", "172937.157000", "172937.160000", "172937.163000", "172937.166000", "172937.169000", "172937.172000", "172937.180000", "172937.183000", "172937.185000", "172937.188000", "172937.191000", "172937.194000", "172937.197000", "172937.200000", "172937.203000", "172957.065000", "172957.068000", "172957.071000", "172957.074000", "172957.077000", "172957.079000", "172957.082000", "172957.085000", "172957.088000", "172957.091000", "172957.106000", "172957.109000", "172957.112000", "172957.114000", "172957.117000", "172957.120000", "172957.123000", "172957.126000", "172957.128000", "172957.131000", "172957.134000", "172957.137000", "172957.140000", "172957.143000", "172957.145000", "172957.148000", "172957.151000", "172957.154000", "173017.065000", "173017.068000", "173017.071000", "173017.073000", "173017.076000", "173017.079000", "173017.082000", "173017.085000", "173017.088000", "173017.091000", "173017.093000", "173017.096000", "173017.099000", "173017.102000", "173017.105000", "173017.108000", "173017.111000", "173017.113000", "173017.116000", "173017.126000", "173017.129000", "173017.132000", "173017.135000", "173017.138000", "173017.140000", "173017.143000", "173017.146000", "173017.149000", "173037.064000", "173037.067000", "173037.070000", "173037.073000", "173037.075000", "173037.078000", "173037.092000", "173037.094000", "173037.097000", "173037.100000", "173037.103000", "173037.106000", "173037.109000", "173037.112000", "173037.115000", "173037.117000", "173037.120000", "173037.123000", "173037.126000", "173037.129000", "173037.132000", "173037.135000", "173037.137000", "173037.140000", "173037.143000", "173037.146000", "173037.149000", "173037.152000", "173037.155000", "173057.064000", "173057.067000", "173057.070000", "173057.072000", "173057.075000", "173057.078000", "173057.081000", "173057.084000", "173057.087000", "173057.090000", "173057.093000", "173057.095000", "173057.098000", "173057.101000", "173057.104000", "173057.107000", "173057.110000", "173057.113000", "173057.115000", "173057.118000", "173057.121000", "173057.124000", "173057.127000", "173057.130000", "173057.133000", "173057.136000", "173057.138000", "173057.141000", "173117.065000", "173117.068000", "173117.071000", "173117.074000", "173117.076000", "173117.079000", "173117.082000", "173117.085000", "173117.088000", "173117.091000", "173117.100000", "173117.103000", "173117.106000", "173117.109000", "173117.111000", "173117.114000", "173117.117000", "173117.120000", "173117.123000", "173117.126000", "173117.129000", "173117.131000", "173117.134000", "173117.137000", "173117.140000", "173117.143000", "173117.146000", "173117.149000", "173129.060000", "173129.063000", "173129.066000", "173129.069000", "173129.072000", "173129.075000", "173129.078000", "173129.080000", "173129.083000", "173129.086000", "173129.089000", "173129.092000", "173129.095000", "173129.098000", "173129.101000"],
      "InstanceNumber": [1, 2, 3, 4, 5, 6, 7, 8, 9, 10, 11, 12, 13, 14, 15, 16, 17, 18, 19, 20, 21, 22, 23, 24, 25, 26, 27, 28, 29, 30, 31, 32, 33, 34, 35, 36, 37, 38, 39, 40, 41, 42, 43, 44, 45, 46, 47, 48, 49, 50, 51, 52, 53, 54, 55, 56, 57, 58, 59, 60, 61, 62, 63, 64, 65, 66, 67, 68, 69, 70, 71, 72, 73, 74, 75, 76, 77, 78, 79, 80, 81, 82, 83, 84, 85, 86, 87, 88, 89, 90, 91, 92, 93, 94, 95, 96, 97, 98, 99, 100, 101, 102, 103, 104, 105, 106, 107, 108, 109, 110, 111, 112, 113, 114, 115, 116, 117, 118, 119, 120, 121, 122, 123, 124, 125, 126, 127, 128, 129, 130, 131, 132, 133, 134, 135, 136, 137, 138, 139, 140, 141, 142, 143, 144, 145, 146, 147, 148, 149, 150, 151, 152, 153, 154, 155, 156, 157, 158, 159, 160, 161, 162, 163, 164, 165, 166, 167, 168, 169, 170, 171, 172, 173, 174, 175, 176, 177, 178, 179, 180, 181, 182, 183, 184, 185, 186, 187, 188, 189, 190, 191, 192],
      "LargestImagePixelValue": [32107, 31468, 31290, 31262, 31596, 31175, 30781, 30820, 31075, 31222, 31154, 31339, 30694, 31347, 31619, 31955, 31890, 31074, 31103, 31147, 31188, 31050, 30671, 31047, 31019, 31540, 31044, 30956, 30852, 30826, 30843, 30758, 31635, 31594, 31040, 31694, 31593, 31642, 32032, 31418, 31340, 31370, 31277, 31031, 31332, 31197, 31218, 31400, 31297, 31054, 30667, 30567, 30792, 31085, 31101, 31081, 30674, 30296, 31217, 30925, 31099, 30963, 31477, 31168, 31779, 31578, 32027, 31823, 31894, 31413, 31236, 31068, 31253, 30795, 31283, 31541, 31086, 31686, 31925, 31437, 31794, 30875, 31102, 31330, 31171, 31330, 31407, 31511, 31472, 31231, 30880, 31227, 30991, 31182, 30884, 31360, 30803, 30990, 31288, 31288, 30917, 31376, 30898, 31060, 30968, 30962, 31117, 31193, 31102, 30543, 31447, 31470, 31422, 31373, 31645, 31662, 32085, 31286, 30809, 30867, 30923, 31199, 31110, 31199, 31458, 30790, 31268, 30643, 30930, 31045, 30541, 31064, 31161, 31089, 30811, 31176, 31246, 31563, 31825, 31394, 31157, 31129, 32038, 32234, 31916, 32583, 30406, 30939, 31215, 30889, 31049, 31380, 31531, 30612, 31002, 30738, 30408, 31267, 31864, 31185, 31269, 31738, 31707, 30510, 31071, 31205, 30854, 31901, 31385, 31376, 30584, 31394, 30473, 30756, 30843, 30736, 31190, 31072, 30927, 30854, 30997, 31092, 31473, 32553, 31673, 32624, 32771, 31519, 31799, 31408, 30913, 30572],
      "WindowCenter": [9514.0, 9499.0, 9488.0, 9480.0, 9486.0, 9472.0, 9463.0, 9464.0, 9454.0, 9459.0, 9470.0, 9479.0, 9484.0, 9504.0, 9504.0, 9501.0, 9502.0, 9490.0, 9490.0, 9483.0, 9477.0, 9471.0, 9465.0, 9476.0, 9478.0, 9483.0, 9478.0, 9481.0, 9467.0, 9467.0, 9474.0, 9474.0, 9494.0, 9496.0, 9497.0, 9504.0, 9503.0, 9495.0, 9495.0, 9482.0, 9481.0, 9487.0, 9496.0, 9499.0, 9502.0, 9481.0, 9485.0, 9476.0, 9475.0, 9473.0, 9465.0, 9479.0, 9477.0, 9480.0, 9488.0, 9490.0, 9482.0, 9475.0, 9480.0, 9472.0, 9471.0, 9481.0, 9490.0, 9491.0, 9498.0, 9484.0, 9487.0, 9481.0, 9486.0, 9479.0, 9480.0, 9475.0, 9471.0, 9459.0, 9472.0, 9477.0, 9480.0, 9495.0, 9492.0, 9479.0, 9479.0, 9466.0, 9471.0, 9479.0, 9474.0, 9481.0, 9481.0, 9479.0, 9479.0, 9481.0, 9463.0, 9463.0, 9463.0, 9470.0, 9472.0, 9488.0, 9473.0, 9471.0, 9471.0, 9464.0, 9462.0, 9472.0, 9472.0, 9476.0, 9473.0, 9466.0, 9465.0, 9460.0, 9465.0, 9456.0, 9481.0, 9474.0, 9473.0, 9472.0, 9471.0, 9469.0, 9476.0, 9465.0, 9467.0, 9467.0, 9461.0, 9458.0, 9463.0, 9466.0, 9469.0, 9464.0, 9472.0, 9459.0, 9466.0, 9467.0, 9460.0, 9475.0, 9477.0, 9482.0, 9492.0, 9486.0, 9481.0, 9485.0, 9481.0, 9466.0, 9467.0, 9476.0, 9488.0, 9494.0, 9480.0, 9477.0, 9444.0, 9449.0, 9448.0, 9438.0, 9440.0, 9453.0, 9452.0, 9443.0, 9450.0, 9445.0, 9452.0, 9470.0, 9470.0, 9458.0, 9471.0, 9478.0, 9473.0, 9464.0, 9484.0, 9495.0, 9502.0, 9513.0, 9490.0, 9481.0, 9462.0, 9473.0, 9468.0, 9477.0, 9484.0, 9478.0, 9484.0, 9483.0, 9475.0, 9471.0, 9469.0, 9476.0, 9484.0, 9503.0, 9499.0, 9517.0, 9510.0, 9482.0, 9472.0, 9465.0, 9455.0, 9444.0],
      "WindowWidth": [20311.0, 20272.0, 20243.0, 20224.0, 20235.0, 20203.0, 20185.0, 20186.0, 20162.0, 20171.0, 20199.0, 20220.0, 20240.0, 20283.0, 20282.0, 20271.0, 20272.0, 20250.0, 20248.0, 20228.0, 20209.0, 20200.0, 20187.0, 20207.0, 20215.0, 20222.0, 20215.0, 20225.0, 20195.0, 20195.0, 20211.0, 20211.0, 20254.0, 20261.0, 20263.0, 20277.0, 20271.0, 20257.0, 20256.0, 20231.0, 20225.0, 20237.0, 20258.0, 20263.0, 20263.0, 20223.0, 20225.0, 20203.0, 20205.0, 20203.0, 20188.0, 20218.0, 20216.0, 20217.0, 20238.0, 20245.0, 20227.0, 20216.0, 20222.0, 20201.0, 20200.0, 20225.0, 20247.0, 20254.0, 20268.0, 20241.0, 20242.0, 20231.0, 20237.0, 20220.0, 20225.0, 20214.0, 20200.0, 20179.0, 20205.0, 20214.0, 20227.0, 20257.0, 20246.0, 20222.0, 20219.0, 20192.0, 20203.0, 20221.0, 20214.0, 20229.0, 20229.0, 20222.0, 20223.0, 20222.0, 20179.0, 20178.0, 20179.0, 20193.0, 20200.0, 20236.0, 20201.0, 20197.0, 20198.0, 20183.0, 20179.0, 20201.0, 20199.0, 20207.0, 20205.0, 20189.0, 20189.0, 20182.0, 20191.0, 20179.0, 20228.0, 20214.0, 20212.0, 20207.0, 20202.0, 20195.0, 20208.0, 20187.0, 20197.0, 20199.0, 20185.0, 20175.0, 20184.0, 20192.0, 20193.0, 20186.0, 20201.0, 20175.0, 20194.0, 20193.0, 20186.0, 20214.0, 20219.0, 20232.0, 20255.0, 20241.0, 20226.0, 20236.0, 20227.0, 20195.0, 20198.0, 20225.0, 20246.0, 20257.0, 20225.0, 20212.0, 20147.0, 20152.0, 20146.0, 20126.0, 20135.0, 20158.0, 20153.0, 20144.0, 20156.0, 20149.0, 20167.0, 20200.0, 20198.0, 20178.0, 20203.0, 20217.0, 20207.0, 20194.0, 20232.0, 20255.0, 20280.0, 20294.0, 20243.0, 20221.0, 20185.0, 20203.0, 20199.0, 20221.0, 20233.0, 20226.0, 20236.0, 20229.0, 20215.0, 20212.0, 20203.0, 20220.0, 20240.0, 20276.0, 20272.0, 20307.0, 20288.0, 20230.0, 20204.0, 20185.0, 20161.0, 20143.0]
    },
    "slices": {}
  },
  "NumberOfVolumes": 192
}