{
  "AcquisitionMatrixPE": 104,
  "AcquisitionNumber": 1,
  "AcquisitionTime": "16:34:12.300000",
  "BandwidthPerPixelPhaseEncode": 16.578,
  "BaseResolution": 104,
  "BodyPartExamined": "BRAIN",
  "ConsistencyInfo": "N4_VE11C_LATEST_20160120",
  "ConversionSoftware": "dcm2niix",
  "ConversionSoftwareVersion": "v1.0.20190902",
  "DerivedVendorReportedEchoSpacing": 0.000580009,
  "DeviceSerialNumber": "166018",
  "DwellTime": 2.1e-06,
  "EchoTime": 0.037,
  "EchoTrainLength": 104,
  "EffectiveEchoSpacing": 0.000580009,
  "FlipAngle": 68,
  "ImageComments": "Unaliased_MB6_PE3_LB",
  "ImageOrientationPatientDICOM": [0.998865, 0.0428984, 0.0206747, -0.0425635, 0.99896, -0.0163773],
  "ImageType": [
    "ORIGINAL",
    "PRIMARY",
    "M",
    "MB",
    "ND",
    "MOSAIC"
],
  "ImagingFrequency": 123.191,
  "InPlanePhaseEncodingDirectionDICOM": "COL",
  "InstitutionAddress": "Washington_Place_6_NYC_NYC_US_10003",
  "InstitutionName": "NYU_-_CBI",
  "InstitutionalDepartmentName": "Department",
  "MRAcquisitionType": "2D",
  "MagneticFieldStrength": 3,
  "Manufacturer": "Siemens",
  "ManufacturersModelName": "Prisma",
  "Modality": "MR",
  "MultibandAccelerationFactor": 6,
  "PartialFourier": 1,
  "PatientPosition": "HFS",
  "PercentPhaseFOV": 100,
  "PhaseEncodingDirection": "j",
  "PhaseEncodingSteps": 104,
  "PhaseResolution": 1,
  "PixelBandwidth": 2290,
  "ProcedureStepDescription": "Investigators_Winawer",
  "ProtocolName": "cmrr_mbepi_s6_2mm_66sl_PA_TR1.0",
  "PulseSequenceDetails": "%CustomerSeq%_cmrr_mbep2d_bold",
  "ReceiveCoilActiveElements": "HC1-7",
  "ReceiveCoilName": "HeadNeck_64",
  "ReconMatrixPE": 104,
  "RepetitionTime": 1,
  "SAR": 0.0673717,
  "ScanOptions": "FS",
  "ScanningSequence": "EP",
  "SequenceName": "epfid2d1_104",
  "SequenceVariant": "SK_SS",
  "SeriesDescription": "cmrr_mbepi_s6_2mm_66sl_PA_TR1.0",
  "SeriesNumber": 28,
  "ShimSetting": [277, -12571, -8534, 278, -14, -5, 51, -2],
  "SliceThickness": 2,
  "SliceTiming": [0, 0.5325, 0.0875, 0.6225, 0.1775, 0.7125, 0.2675, 0.8, 0.355, 0.89, 0.445, 0, 0.5325, 0.0875, 0.6225, 0.1775, 0.7125, 0.2675, 0.8, 0.355, 0.89, 0.445, 0, 0.5325, 0.0875, 0.6225, 0.1775, 0.7125, 0.2675, 0.8, 0.355, 0.89, 0.445, 0, 0.5325, 0.0875, 0.6225, 0.1775, 0.7125, 0.2675, 0.8, 0.355, 0.89, 0.445, 0, 0.5325, 0.0875, 0.6225, 0.1775, 0.7125, 0.2675, 0.8, 0.355, 0.89, 0.445, 0, 0.5325, 0.0875, 0.6225, 0.1775, 0.7125, 0.2675, 0.8, 0.355, 0.89, 0.445],
  "SoftwareVersions": "syngo_MR_E11",
  "SpacingBetweenSlices": 2,
  "StationName": "AWP166018",
  "TaskName": "prf",
  "TotalReadoutTime": 0.0597409,
  "TxRefAmp": 205.563,
  "WipMemBlock": "e664232a-aca7-45b9-beb2-314c6f22c108||Sequence: ve11c/master r/ab69a6c; Apr 19 2017 09:47:47 by eja",
  "dcmmeta_affine": [
    [-1.9977309703826904, -0.08512690663337708, 0.0427115261554718, 111.0504379272461],
    [-0.0857967883348465, 1.9979190826416016, -0.030957387760281563, -83.35585021972656],
    [0.04134942963719368, 0.03275452181696892, 1.999304175376892, -41.87906265258789],
    [0.0, 0.0, 0.0, 1.0]
],
  "dcmmeta_reorient_transform": [
    [0.0, -1.0, 0.0, 103.0],
    [1.0, 0.0, 0.0, 0.0],
    [0.0, 0.0, 1.0, 0.0],
    [0.0, 0.0, 0.0, 1.0]
],
  "dcmmeta_shape": [104, 104, 66, 192],
  "dcmmeta_slice_dim": 2,
  "dcmmeta_version": 0.6,
  "global": {
    "const": {
      "AccessionNumber": "j9yLnzuo",
      "AcquisitionMatrix": [104, 0, 0, 104],
      "AngioFlag": "N",
      "BitsAllocated": 16,
      "BitsStored": 16,
      "BodyPartExamined": "BRAIN",
      "Columns": 936,
      "EchoNumbers": 1,
      "EchoTime": 37.0,
      "EchoTrainLength": 104,
      "FlipAngle": 68.0,
      "HighBit": 15,
      "ImageOrientationPatient": [0.99886549836743, 0.04289839512642, 0.02067471563915, -0.0425634536089, 0.99895952756743, -0.0163772616497],
      "ImagePositionPatient": [-897.92566420561, -989.25560713314, -42.080827578655],
      "ImageType": [
        "ORIGINAL",
        "PRIMARY",
        "M",
        "MB",
        "ND",
        "MOSAIC"
],
      "ImagedNucleus": "1H",
      "ImagingFrequency": 123.191302,
      "InPlanePhaseEncodingDirection": "COL",
      "MRAcquisitionType": "2D",
      "MagneticFieldStrength": 3.0,
      "Manufacturer": "SIEMENS",
      "ManufacturerModelName": "Prisma",
      "Modality": "MR",
      "NumberOfAverages": 1.0,
      "NumberOfPhaseEncodingSteps": 104,
      "PercentPhaseFieldOfView": 100.0,
      "PercentSampling": 100.0,
      "PerformedProcedureStepStartTime": "153632.718000",
      "PhotometricInterpretation": "MONOCHROME2",
      "PixelBandwidth": 2290.0,
      "PixelRepresentation": 0,
      "PixelSpacing": [2.0, 2.0],
      "ProtocolName": "cmrr_mbepi_s6_2mm_66sl_PA_TR1.0",
      "RepetitionTime": 1000.0,
      "Rows": 936,
      "SAR": 0.06737168448902,
      "SamplesPerPixel": 1,
      "ScanOptions": "FS",
      "ScanningSequence": "EP",
      "SequenceName": "epfid2d1_104",
      "SequenceVariant": [
        "SK",
        "SS"
],
      "SeriesDescription": "cmrr_mbepi_s6_2mm_66sl_PA_TR1.0",
      "SeriesNumber": 28,
      "SeriesTime": "163519.665000",
      "SliceLocation": -38.202686089358,
      "SliceThickness": 2.0,
      "SmallestImagePixelValue": 0,
      "SoftwareVersions": "syngo MR E11",
      "SpacingBetweenSlices": 1.9999999787566,
      "SpecificCharacterSet": "ISO_IR 100",
      "StudyID": "1",
      "StudyTime": "153632.662000",
      "TransmitCoilName": "Body",
      "VariableFlipAngleFlag": "N",
      "WindowCenterWidthExplanation": "Algo1",
      "dBdt": 0.0},
    "slices": {}
  },
  "time": {
    "samples": {
      "AcquisitionNumber": [1, 2, 3, 4, 5, 6, 7, 8, 9, 10, 11, 12, 13, 14, 15, 16, 17, 18, 19, 20, 21, 22, 23, 24, 25, 26, 27, 28, 29, 30, 31, 32, 33, 34, 35, 36, 37, 38, 39, 40, 41, 42, 43, 44, 45, 46, 47, 48, 49, 50, 51, 52, 53, 54, 55, 56, 57, 58, 59, 60, 61, 62, 63, 64, 65, 66, 67, 68, 69, 70, 71, 72, 73, 74, 75, 76, 77, 78, 79, 80, 81, 82, 83, 84, 85, 86, 87, 88, 89, 90, 91, 92, 93, 94, 95, 96, 97, 98, 99, 100, 101, 102, 103, 104, 105, 106, 107, 108, 109, 110, 111, 112, 113, 114, 115, 116, 117, 118, 119, 120, 121, 122, 123, 124, 125, 126, 127, 128, 129, 130, 131, 132, 133, 134, 135, 136, 137, 138, 139, 140, 141, 142, 143, 144, 145, 146, 147, 148, 149, 150, 151, 152, 153, 154, 155, 156, 157, 158, 159, 160, 161, 162, 163, 164, 165, 166, 167, 168, 169, 170, 171, 172, 173, 174, 175, 176, 177, 178, 179, 180, 181, 182, 183, 184, 185, 186, 187, 188, 189, 190, 191, 192],
      "AcquisitionTime": ["163412.300000", "163413.300000", "163414.300000", "163415.300000", "163416.300000", "163417.300000", "163418.300000", "163419.300000", "163420.300000", "163421.300000", "163422.300000", "163423.300000", "163424.300000", "163425.300000", "163426.300000", "163427.300000", "163428.300000", "163429.300000", "163430.300000", "163431.300000", "163432.300000", "163433.300000", "163434.300000", "163435.300000", "163436.300000", "163437.300000", "163438.300000", "163439.300000", "163440.300000", "163441.300000", "163442.300000", "163443.300000", "163444.300000", "163445.300000", "163446.300000", "163447.300000", "163448.300000", "163449.300000", "163450.300000", "163451.300000", "163452.300000", "163453.300000", "163454.300000", "163455.300000", "163456.300000", "163457.300000", "163458.300000", "163459.300000", "163500.300000", "163501.300000", "163502.300000", "163503.300000", "163504.300000", "163505.300000", "163506.300000", "163507.300000", "163508.300000", "163509.300000", "163510.300000", "163511.300000", "163512.300000", "163513.300000", "163514.300000", "163515.300000", "163516.300000", "163517.300000", "163518.300000", "163519.300000", "163520.300000", "163521.300000", "163522.300000", "163523.300000", "163524.300000", "163525.300000", "163526.300000", "163527.300000", "163528.300000", "163529.300000", "163530.300000", "163531.300000", "163532.300000", "163533.300000", "163534.300000", "163535.300000", "163536.300000", "163537.300000", "163538.300000", "163539.300000", "163540.300000", "163541.300000", "163542.300000", "163543.300000", "163544.300000", "163545.300000", "163546.300000", "163547.300000", "163548.300000", "163549.300000", "163550.300000", "163551.300000", "163552.300000", "163553.300000", "163554.300000", "163555.300000", "163556.300000", "163557.300000", "163558.300000", "163559.300000", "163600.300000", "163601.300000", "163602.300000", "163603.300000", "163604.300000", "163605.300000", "163606.300000", "163607.300000", "163608.300000", "163609.300000", "163610.300000", "163611.300000", "163612.300000", "163613.300000", "163614.300000", "163615.300000", "163616.300000", "163617.300000", "163618.300000", "163619.300000", "163620.300000", "163621.300000", "163622.300000", "163623.300000", "163624.300000", "163625.300000", "163626.300000", "163627.300000", "163628.300000", "163629.300000", "163630.300000", "163631.300000", "163632.300000", "163633.300000", "163634.300000", "163635.300000", "163636.300000", "163637.300000", "163638.300000", "163639.300000", "163640.300000", "163641.300000", "163642.300000", "163643.300000", "163644.300000", "163645.300000", "163646.300000", "163647.300000", "163648.300000", "163649.300000", "163650.300000", "163651.300000", "163652.300000", "163653.300000", "163654.300000", "163655.300000", "163656.300000", "163657.300000", "163658.300000", "163659.300000", "163700.300000", "163701.300000", "163702.300000", "163703.300000", "163704.300000", "163705.300000", "163706.300000", "163707.300000", "163708.300000", "163709.300000", "163710.300000", "163711.300000", "163712.300000", "163713.300000", "163714.300000", "163715.300000", "163716.300000", "163717.300000", "163718.300000", "163719.300000", "163720.300000", "163721.300000", "163722.300000", "163723.300000"],
      "ContentTime": ["163519.668000", "163519.671000", "163519.674000", "163519.677000", "163519.688000", "163519.691000", "163519.703000", "163519.706000", "163519.709000", "163519.719000", "163519.722000", "163519.725000", "163519.728000", "163519.731000", "163519.734000", "163519.736000", "163519.739000", "163519.742000", "163519.745000", "163519.748000", "163519.751000", "163519.754000", "163519.757000", "163519.760000", "163539.631000", "163539.634000", "163539.637000", "163539.640000", "163539.643000", "163539.646000", "163539.648000", "163539.651000", "163539.654000", "163539.666000", "163539.669000", "163539.672000", "163539.675000", "163539.678000", "163539.681000", "163539.683000", "163539.686000", "163539.689000", "163539.692000", "163539.695000", "163539.698000", "163539.701000", "163539.704000", "163539.707000", "163539.710000", "163539.716000", "163539.719000", "163539.722000", "163559.630000", "163559.633000", "163559.636000", "163559.639000", "163559.642000", "163559.645000", "163559.648000", "163559.651000", "163559.653000", "163559.656000", "163559.659000", "163559.662000", "163559.665000", "163559.668000", "163559.671000", "163559.674000", "163559.677000", "163559.679000", "163559.682000", "163559.696000", "163559.699000", "163559.702000", "163559.705000", "163559.708000", "163559.711000", "163559.714000", "163559.717000", "163559.720000", "163619.630000", "163619.639000", "163619.642000", "163619.645000", "163619.648000", "163619.651000", "163619.653000", "163619.656000", "163619.659000", "163619.662000", "163619.665000", "163619.668000", "163619.671000", "163619.674000", "163619.677000", "163619.680000", "163619.683000", "163619.686000", "163619.689000", "163619.691000", "163619.694000", "163619.697000", "163619.712000", "163619.715000", "163619.718000", "163619.721000", "163619.723000", "163619.726000", "163619.729000", "163639.630000", "163639.633000", "163639.636000", "163639.639000", "163639.642000", "163639.645000", "163639.648000", "163639.651000", "163639.654000", "163639.657000", "163639.660000", "163639.663000", "163639.666000", "163639.668000", "163639.672000", "163639.674000", "163639.677000", "163639.686000", "163639.689000", "163639.692000", "163639.695000", "163639.698000", "163639.701000", "163639.704000", "163639.707000", "163639.710000", "163639.713000", "163639.716000", "163659.631000", "163659.634000", "163659.637000", "163659.640000", "163659.643000", "163659.646000", "163659.649000", "163659.652000", "163659.655000", "163659.658000", "163659.661000", "163659.664000", "163659.667000", "163659.669000", "163659.672000", "163659.675000", "163659.678000", "163659.681000", "163659.684000", "163659.687000", "163659.690000", "163659.693000", "163659.696000", "163659.699000", "163659.702000", "163659.705000", "163659.708000", "163659.711000", "163719.631000", "163719.634000", "163719.637000", "163719.640000", "163719.643000", "163719.646000", "163719.649000", "163719.652000", "163719.655000", "163719.658000", "163719.661000", "163719.664000", "163719.666000", "163719.669000", "163719.672000", "163719.675000", "163719.678000", "163719.681000", "163719.684000", "163719.687000", "163719.690000", "163719.693000", "163724.652000", "163724.655000", "163724.658000", "163724.661000", "163724.664000"],
      "InstanceCreationTime": ["163519.668000", "163519.671000", "163519.674000", "163519.677000", "163519.688000", "163519.691000", "163519.703000", "163519.706000", "163519.709000", "163519.719000", "163519.722000", "163519.725000", "163519.728000", "163519.731000", "163519.734000", "163519.736000", "163519.739000", "163519.742000", "163519.745000", "163519.748000", "163519.751000", "163519.754000", "163519.757000", "163519.760000", "163539.631000", "163539.634000", "163539.637000", "163539.640000", "163539.643000", "163539.646000", "163539.648000", "163539.651000", "163539.654000", "163539.666000", "163539.669000", "163539.672000", "163539.675000", "163539.678000", "163539.681000", "163539.683000", "163539.686000", "163539.689000", "163539.692000", "163539.695000", "163539.698000", "163539.701000", "163539.704000", "163539.707000", "163539.710000", "163539.716000", "163539.719000", "163539.722000", "163559.630000", "163559.633000", "163559.636000", "163559.639000", "163559.642000", "163559.645000", "163559.648000", "163559.651000", "163559.653000", "163559.656000", "163559.659000", "163559.662000", "163559.665000", "163559.668000", "163559.671000", "163559.674000", "163559.677000", "163559.679000", "163559.682000", "163559.696000", "163559.699000", "163559.702000", "163559.705000", "163559.708000", "163559.711000", "163559.714000", "163559.717000", "163559.720000", "163619.630000", "163619.639000", "163619.642000", "163619.645000", "163619.648000", "163619.651000", "163619.653000", "163619.656000", "163619.659000", "163619.662000", "163619.665000", "163619.668000", "163619.671000", "163619.674000", "163619.677000", "163619.680000", "163619.683000", "163619.686000", "163619.689000", "163619.691000", "163619.694000", "163619.697000", "163619.712000", "163619.715000", "163619.718000", "163619.721000", "163619.723000", "163619.726000", "163619.729000", "163639.630000", "163639.633000", "163639.636000", "163639.639000", "163639.642000", "163639.645000", "163639.648000", "163639.651000", "163639.654000", "163639.657000", "163639.660000", "163639.663000", "163639.666000", "163639.668000", "163639.672000", "163639.674000", "163639.677000", "163639.686000", "163639.689000", "163639.692000", "163639.695000", "163639.698000", "163639.701000", "163639.704000", "163639.707000", "163639.710000", "163639.713000", "163639.716000", "163659.631000", "163659.634000", "163659.637000", "163659.640000", "163659.643000", "163659.646000", "163659.649000", "163659.652000", "163659.655000", "163659.658000", "163659.661000", "163659.664000", "163659.667000", "163659.669000", "163659.672000", "163659.675000", "163659.678000", "163659.681000", "163659.684000", "163659.687000", "163659.690000", "163659.693000", "163659.696000", "163659.699000", "163659.702000", "163659.705000", "163659.708000", "163659.711000", "163719.631000", "163719.634000", "163719.637000", "163719.640000", "163719.643000", "163719.646000", "163719.649000", "163719.652000", "163719.655000", "163719.658000", "163719.661000", "163719.664000", "163719.666000", "163719.669000", "163719.672000", "163719.675000", "163719.678000", "163719.681000", "163719.684000", "163719.687000", "163719.690000", "163719.693000", "163724.652000", "163724.655000", "163724.658000", "163724.661000", "163724.664000"],
      "InstanceNumber": [1, 2, 3, 4, 5, 6, 7, 8, 9, 10, 11, 12, 13, 14, 15, 16, 17, 18, 19, 20, 21, 22, 23, 24, 25, 26, 27, 28, 29, 30, 31, 32, 33, 34, 35, 36, 37, 38, 39, 40, 41, 42, 43, 44, 45, 46, 47, 48, 49, 50, 51, 52, 53, 54, 55, 56, 57, 58, 59, 60, 61, 62, 63, 64, 65, 66, 67, 68, 69, 70, 71, 72, 73, 74, 75, 76, 77, 78, 79, 80, 81, 82, 83, 84, 85, 86, 87, 88, 89, 90, 91, 92, 93, 94, 95, 96, 97, 98, 99, 100, 101, 102, 103, 104, 105, 106, 107, 108, 109, 110, 111, 112, 113, 114, 115, 116, 117, 118, 119, 120, 121, 122, 123, 124, 125, 126, 127, 128, 129, 130, 131, 132, 133, 134, 135, 136, 137, 138, 139, 140, 141, 142, 143, 144, 145, 146, 147, 148, 149, 150, 151, 152, 153, 154, 155, 156, 157, 158, 159, 160, 161, 162, 163, 164, 165, 166, 167, 168, 169, 170, 171, 172, 173, 174, 175, 176, 177, 178, 179, 180, 181, 182, 183, 184, 185, 186, 187, 188, 189, 190, 191, 192],
      "LargestImagePixelValue": [36258, 35662, 34763, 35440, 35062, 34657, 34823, 35052, 34722, 34847, 34966, 34606, 35138, 35028, 34682, 35419, 35335, 35131, 35237, 34788, 35388, 35660, 34785, 35479, 34910, 34939, 35592, 35367, 35346, 35356, 34421, 34714, 34544, 34222, 34871, 34155, 34485, 34836, 34450, 35101, 34760, 34707, 35037, 34701, 34801, 35275, 34539, 34567, 34634, 34307, 34754, 34386, 34966, 34568, 34367, 34675, 34794, 34327, 34861, 34645, 34478, 34698, 34689, 34554, 34859, 34747, 34409, 35007, 34845, 34422, 34894, 34556, 34476, 34729, 34232, 34646, 34321, 34483, 34546, 34854, 34807, 35001, 34661, 34905, 34862, 34343, 34321, 34655, 34530, 34345, 35241, 34840, 35657, 35068, 35428, 35568, 35029, 35104, 34968, 34694, 34768, 34904, 34833, 35004, 34500, 35115, 35274, 34828, 35424, 35116, 35091, 35719, 34637, 35316, 35118, 35122, 35974, 35013, 35143, 34658, 34706, 35400, 34759, 35063, 35285, 34842, 35626, 34698, 34688, 35015, 34542, 34930, 34774, 34612, 34879, 34153, 34928, 35039, 35072, 35216, 34910, 34673, 34790, 34367, 34813, 34789, 34178, 35069, 34895, 34758, 35037, 34886, 35219, 35228, 35007, 35631, 34773, 35460, 34772, 34670, 34775, 34231, 34335, 35050, 35238, 35387, 34514, 35479, 35473, 34138, 35262, 34231, 34309, 34336, 34307, 34183, 34387, 34479, 34698, 34802, 35553, 34707, 35042, 35074, 34461, 35165, 34350, 34842, 35138, 34856, 35750, 35491],
      "WindowCenter": [9871.0, 9828.0, 9811.0, 9807.0, 9812.0, 9811.0, 9816.0, 9820.0, 9816.0, 9807.0, 9799.0, 9801.0, 9811.0, 9812.0, 9823.0, 9836.0, 9838.0, 9841.0, 9833.0, 9834.0, 9831.0, 9828.0, 9824.0, 9820.0, 9814.0, 9813.0, 9825.0, 9827.0, 9830.0, 9823.0, 9810.0, 9801.0, 9800.0, 9801.0, 9800.0, 9794.0, 9795.0, 9798.0, 9806.0, 9821.0, 9820.0, 9817.0, 9809.0, 9801.0, 9799.0, 9795.0, 9793.0, 9791.0, 9792.0, 9787.0, 9796.0, 9793.0, 9812.0, 9808.0, 9802.0, 9801.0, 9790.0, 9781.0, 9781.0, 9774.0, 9781.0, 9782.0, 9787.0, 9797.0, 9805.0, 9814.0, 9816.0, 9822.0, 9810.0, 9802.0, 9801.0, 9799.0, 9795.0, 9790.0, 9771.0, 9770.0, 9761.0, 9773.0, 9783.0, 9793.0, 9798.0, 9799.0, 9799.0, 9807.0, 9799.0, 9794.0, 9795.0, 9793.0, 9806.0, 9795.0, 9798.0, 9799.0, 9802.0, 9804.0, 9809.0, 9809.0, 9800.0, 9796.0, 9780.0, 9783.0, 9788.0, 9801.0, 9805.0, 9802.0, 9793.0, 9805.0, 9811.0, 9816.0, 9819.0, 9815.0, 9814.0, 9817.0, 9808.0, 9814.0, 9822.0, 9836.0, 9844.0, 9833.0, 9833.0, 9818.0, 9825.0, 9827.0, 9830.0, 9838.0, 9837.0, 9832.0, 9827.0, 9809.0, 9807.0, 9812.0, 9816.0, 9821.0, 9822.0, 9816.0, 9815.0, 9810.0, 9822.0, 9823.0, 9830.0, 9836.0, 9831.0, 9827.0, 9823.0, 9819.0, 9829.0, 9831.0, 9828.0, 9837.0, 9832.0, 9825.0, 9822.0, 9823.0, 9830.0, 9836.0, 9846.0, 9854.0, 9849.0, 9846.0, 9834.0, 9827.0, 9831.0, 9828.0, 9834.0, 9847.0, 9848.0, 9846.0, 9840.0, 9847.0, 9838.0, 9829.0, 9824.0, 9812.0, 9811.0, 9810.0, 9817.0, 9819.0, 9818.0, 9832.0, 9834.0, 9840.0, 9851.0, 9844.0, 9848.0, 9842.0, 9829.0, 9830.0, 9813.0, 9826.0, 9832.0, 9840.0, 9850.0, 9837.0],
      "WindowWidth": [21184.0, 21062.0, 21012.0, 20994.0, 21002.0, 21004.0, 21010.0, 21015.0, 21008.0, 20986.0, 20969.0, 20976.0, 20993.0, 20997.0, 21027.0, 21050.0, 21060.0, 21068.0, 21053.0, 21053.0, 21042.0, 21032.0, 21024.0, 21013.0, 21000.0, 20999.0, 21022.0, 21029.0, 21038.0, 21024.0, 20999.0, 20977.0, 20972.0, 20974.0, 20972.0, 20959.0, 20962.0, 20966.0, 20987.0, 21017.0, 21017.0, 21013.0, 20992.0, 20978.0, 20969.0, 20958.0, 20957.0, 20950.0, 20951.0, 20942.0, 20958.0, 20957.0, 20995.0, 20990.0, 20977.0, 20971.0, 20946.0, 20926.0, 20925.0, 20910.0, 20926.0, 20929.0, 20939.0, 20964.0, 20981.0, 21005.0, 21013.0, 21023.0, 20998.0, 20981.0, 20975.0, 20971.0, 20963.0, 20947.0, 20910.0, 20903.0, 20883.0, 20909.0, 20931.0, 20950.0, 20965.0, 20966.0, 20969.0, 20984.0, 20965.0, 20958.0, 20961.0, 20958.0, 20985.0, 20963.0, 20965.0, 20967.0, 20969.0, 20974.0, 20985.0, 20984.0, 20968.0, 20956.0, 20922.0, 20930.0, 20939.0, 20970.0, 20979.0, 20972.0, 20958.0, 20979.0, 20992.0, 21007.0, 21011.0, 21006.0, 21002.0, 21004.0, 20993.0, 21002.0, 21023.0, 21051.0, 21071.0, 21051.0, 21049.0, 21019.0, 21030.0, 21030.0, 21038.0, 21055.0, 21053.0, 21042.0, 21027.0, 20990.0, 20982.0, 20992.0, 21004.0, 21014.0, 21016.0, 21006.0, 21002.0, 20994.0, 21018.0, 21022.0, 21037.0, 21047.0, 21039.0, 21031.0, 21021.0, 21016.0, 21033.0, 21039.0, 21036.0, 21051.0, 21042.0, 21027.0, 21018.0, 21021.0, 21035.0, 21050.0, 21075.0, 21093.0, 21085.0, 21076.0, 21052.0, 21037.0, 21042.0, 21041.0, 21052.0, 21077.0, 21079.0, 21074.0, 21063.0, 21075.0, 21054.0, 21037.0, 21022.0, 20998.0, 20995.0, 20996.0, 21008.0, 21016.0, 21015.0, 21043.0, 21047.0, 21059.0, 21081.0, 21071.0, 21077.0, 21066.0, 21040.0, 21036.0, 21005.0, 21031.0, 21043.0, 21060.0, 21076.0, 21049.0]
    },
    "slices": {}
  },
  "NumberOfVolumes": 192
}