{
  "AcquisitionMatrixPE": 104,
  "AcquisitionNumber": 1,
  "AcquisitionTime": "16:22:8.852500",
  "BandwidthPerPixelPhaseEncode": 16.578,
  "BaseResolution": 104,
  "BodyPartExamined": "BRAIN",
  "ConsistencyInfo": "N4_VE11C_LATEST_20160120",
  "ConversionSoftware": "dcm2niix",
  "ConversionSoftwareVersion": "v1.0.20190902",
  "DerivedVendorReportedEchoSpacing": 0.000580009,
  "DeviceSerialNumber": "166018",
  "DwellTime": 2.1e-06,
  "EchoTime": 0.037,
  "EchoTrainLength": 104,
  "EffectiveEchoSpacing": 0.000580009,
  "FlipAngle": 68,
  "ImageComments": "Unaliased_MB6_PE3_LB",
  "ImageOrientationPatientDICOM": [0.998865, 0.0428984, 0.0206747, -0.0425635, 0.99896, -0.0163773],
  "ImageType": [
    "ORIGINAL",
    "PRIMARY",
    "M",
    "MB",
    "ND",
    "MOSAIC"
],
  "ImagingFrequency": 123.191,
  "InPlanePhaseEncodingDirectionDICOM": "COL",
  "InstitutionAddress": "Washington_Place_6_NYC_NYC_US_10003",
  "InstitutionName": "NYU_-_CBI",
  "InstitutionalDepartmentName": "Department",
  "MRAcquisitionType": "2D",
  "MagneticFieldStrength": 3,
  "Manufacturer": "Siemens",
  "ManufacturersModelName": "Prisma",
  "Modality": "MR",
  "MultibandAccelerationFactor": 6,
  "PartialFourier": 1,
  "PatientPosition": "HFS",
  "PercentPhaseFOV": 100,
  "PhaseEncodingDirection": "j",
  "PhaseEncodingSteps": 104,
  "PhaseResolution": 1,
  "PixelBandwidth": 2290,
  "ProcedureStepDescription": "Investigators_Winawer",
  "ProtocolName": "cmrr_mbepi_s6_2mm_66sl_PA_TR1.0",
  "PulseSequenceDetails": "%CustomerSeq%_cmrr_mbep2d_bold",
  "ReceiveCoilActiveElements": "HC1-7",
  "ReceiveCoilName": "HeadNeck_64",
  "ReconMatrixPE": 104,
  "RepetitionTime": 1,
  "SAR": 0.0673717,
  "ScanOptions": "FS",
  "ScanningSequence": "EP",
  "SequenceName": "epfid2d1_104",
  "SequenceVariant": "SK_SS",
  "SeriesDescription": "cmrr_mbepi_s6_2mm_66sl_PA_TR1.0",
  "SeriesNumber": 22,
  "ShimSetting": [277, -12571, -8534, 278, -14, -5, 51, -2],
  "SliceThickness": 2,
  "SliceTiming": [0, 0.535, 0.09, 0.6225, 0.1775, 0.7125, 0.2675, 0.8025, 0.3575, 0.89, 0.445, 0, 0.535, 0.09, 0.6225, 0.1775, 0.7125, 0.2675, 0.8025, 0.3575, 0.89, 0.445, 0, 0.535, 0.09, 0.6225, 0.1775, 0.7125, 0.2675, 0.8025, 0.3575, 0.89, 0.445, 0, 0.535, 0.09, 0.6225, 0.1775, 0.7125, 0.2675, 0.8025, 0.3575, 0.89, 0.445, 0, 0.535, 0.09, 0.6225, 0.1775, 0.7125, 0.2675, 0.8025, 0.3575, 0.89, 0.445, 0, 0.535, 0.09, 0.6225, 0.1775, 0.7125, 0.2675, 0.8025, 0.3575, 0.89, 0.445],
  "SoftwareVersions": "syngo_MR_E11",
  "SpacingBetweenSlices": 2,
  "StationName": "AWP166018",
  "TaskName": "prf",
  "TotalReadoutTime": 0.0597409,
  "TxRefAmp": 205.563,
  "WipMemBlock": "1cca9d26-2329-4a38-9ec0-76840e38120d||Sequence: ve11c/master r/ab69a6c; Apr 19 2017 09:47:47 by eja",
  "dcmmeta_affine": [
    [-1.9977309703826904, -0.08512690663337708, 0.0427115261554718, 111.0504379272461],
    [-0.0857967883348465, 1.9979190826416016, -0.030957387760281563, -83.35585021972656],
    [0.04134942963719368, 0.03275452181696892, 1.999304175376892, -41.87906265258789],
    [0.0, 0.0, 0.0, 1.0]
],
  "dcmmeta_reorient_transform": [
    [0.0, -1.0, 0.0, 103.0],
    [1.0, 0.0, 0.0, 0.0],
    [0.0, 0.0, 1.0, 0.0],
    [0.0, 0.0, 0.0, 1.0]
],
  "dcmmeta_shape": [104, 104, 66, 192],
  "dcmmeta_slice_dim": 2,
  "dcmmeta_version": 0.6,
  "global": {
    "const": {
      "AccessionNumber": "j9yLnzuo",
      "AcquisitionMatrix": [104, 0, 0, 104],
      "AngioFlag": "N",
      "BitsAllocated": 16,
      "BitsStored": 16,
      "BodyPartExamined": "BRAIN",
      "Columns": 936,
      "EchoNumbers": 1,
      "EchoTime": 37.0,
      "EchoTrainLength": 104,
      "FlipAngle": 68.0,
      "HighBit": 15,
      "ImageOrientationPatient": [0.99886549836743, 0.04289839512642, 0.02067471563915, -0.0425634536089, 0.99895952756743, -0.0163772616497],
      "ImagePositionPatient": [-897.92566420561, -989.25560713314, -42.080827578655],
      "ImageType": [
        "ORIGINAL",
        "PRIMARY",
        "M",
        "MB",
        "ND",
        "MOSAIC"
],
      "ImagedNucleus": "1H",
      "ImagingFrequency": 123.191296,
      "InPlanePhaseEncodingDirection": "COL",
      "MRAcquisitionType": "2D",
      "MagneticFieldStrength": 3.0,
      "Manufacturer": "SIEMENS",
      "ManufacturerModelName": "Prisma",
      "Modality": "MR",
      "NumberOfAverages": 1.0,
      "NumberOfPhaseEncodingSteps": 104,
      "PercentPhaseFieldOfView": 100.0,
      "PercentSampling": 100.0,
      "PerformedProcedureStepStartTime": "153632.718000",
      "PhotometricInterpretation": "MONOCHROME2",
      "PixelBandwidth": 2290.0,
      "PixelRepresentation": 0,
      "PixelSpacing": [2.0, 2.0],
      "ProtocolName": "cmrr_mbepi_s6_2mm_66sl_PA_TR1.0",
      "RepetitionTime": 1000.0,
      "Rows": 936,
      "SAR": 0.06737168448902,
      "SamplesPerPixel": 1,
      "ScanOptions": "FS",
      "ScanningSequence": "EP",
      "SequenceName": "epfid2d1_104",
      "SequenceVariant": [
        "SK",
        "SS"
],
      "SeriesDescription": "cmrr_mbepi_s6_2mm_66sl_PA_TR1.0",
      "SeriesNumber": 22,
      "SeriesTime": "162319.660000",
      "SliceLocation": -38.202686089358,
      "SliceThickness": 2.0,
      "SmallestImagePixelValue": 0,
      "SoftwareVersions": "syngo MR E11",
      "SpacingBetweenSlices": 1.9999999787566,
      "SpecificCharacterSet": "ISO_IR 100",
      "StudyID": "1",
      "StudyTime": "153632.662000",
      "TransmitCoilName": "Body",
      "VariableFlipAngleFlag": "N",
      "WindowCenterWidthExplanation": "Algo1",
      "dBdt": 0.0},
    "slices": {}
  },
  "time": {
    "samples": {
      "AcquisitionNumber": [1, 2, 3, 4, 5, 6, 7, 8, 9, 10, 11, 12, 13, 14, 15, 16, 17, 18, 19, 20, 21, 22, 23, 24, 25, 26, 27, 28, 29, 30, 31, 32, 33, 34, 35, 36, 37, 38, 39, 40, 41, 42, 43, 44, 45, 46, 47, 48, 49, 50, 51, 52, 53, 54, 55, 56, 57, 58, 59, 60, 61, 62, 63, 64, 65, 66, 67, 68, 69, 70, 71, 72, 73, 74, 75, 76, 77, 78, 79, 80, 81, 82, 83, 84, 85, 86, 87, 88, 89, 90, 91, 92, 93, 94, 95, 96, 97, 98, 99, 100, 101, 102, 103, 104, 105, 106, 107, 108, 109, 110, 111, 112, 113, 114, 115, 116, 117, 118, 119, 120, 121, 122, 123, 124, 125, 126, 127, 128, 129, 130, 131, 132, 133, 134, 135, 136, 137, 138, 139, 140, 141, 142, 143, 144, 145, 146, 147, 148, 149, 150, 151, 152, 153, 154, 155, 156, 157, 158, 159, 160, 161, 162, 163, 164, 165, 166, 167, 168, 169, 170, 171, 172, 173, 174, 175, 176, 177, 178, 179, 180, 181, 182, 183, 184, 185, 186, 187, 188, 189, 190, 191, 192],
      "AcquisitionTime": ["162208.852500", "162209.852500", "162210.852500", "162211.852500", "162212.852500", "162213.852500", "162214.852500", "162215.852500", "162216.852500", "162217.852500", "162218.852500", "162219.852500", "162220.852500", "162221.852500", "162222.852500", "162223.852500", "162224.852500", "162225.852500", "162226.852500", "162227.852500", "162228.852500", "162229.852500", "162230.852500", "162231.852500", "162232.852500", "162233.852500", "162234.852500", "162235.852500", "162236.852500", "162237.852500", "162238.852500", "162239.852500", "162240.852500", "162241.852500", "162242.852500", "162243.852500", "162244.852500", "162245.852500", "162246.852500", "162247.852500", "162248.852500", "162249.852500", "162250.852500", "162251.852500", "162252.852500", "162253.852500", "162254.852500", "162255.852500", "162256.852500", "162257.852500", "162258.852500", "162259.852500", "162300.852500", "162301.852500", "162302.852500", "162303.852500", "162304.852500", "162305.852500", "162306.852500", "162307.852500", "162308.852500", "162309.852500", "162310.852500", "162311.852500", "162312.852500", "162313.852500", "162314.852500", "162315.852500", "162316.852500", "162317.852500", "162318.852500", "162319.852500", "162320.852500", "162321.852500", "162322.852500", "162323.852500", "162324.852500", "162325.852500", "162326.852500", "162327.852500", "162328.852500", "162329.852500", "162330.852500", "162331.852500", "162332.852500", "162333.852500", "162334.852500", "162335.852500", "162336.852500", "162337.852500", "162338.852500", "162339.852500", "162340.852500", "162341.852500", "162342.852500", "162343.852500", "162344.852500", "162345.852500", "162346.852500", "162347.852500", "162348.852500", "162349.852500", "162350.852500", "162351.852500", "162352.852500", "162353.852500", "162354.852500", "162355.852500", "162356.852500", "162357.852500", "162358.852500", "162359.852500", "162400.852500", "162401.852500", "162402.852500", "162403.852500", "162404.852500", "162405.852500", "162406.852500", "162407.852500", "162408.852500", "162409.852500", "162410.852500", "162411.852500", "162412.852500", "162413.852500", "162414.852500", "162415.852500", "162416.852500", "162417.852500", "162418.852500", "162419.852500", "162420.852500", "162421.852500", "162422.852500", "162423.852500", "162424.852500", "162425.852500", "162426.852500", "162427.852500", "162428.852500", "162429.852500", "162430.852500", "162431.852500", "162432.852500", "162433.852500", "162434.852500", "162435.852500", "162436.852500", "162437.852500", "162438.852500", "162439.852500", "162440.852500", "162441.852500", "162442.852500", "162443.852500", "162444.852500", "162445.852500", "162446.852500", "162447.852500", "162448.852500", "162449.852500", "162450.852500", "162451.852500", "162452.852500", "162453.852500", "162454.852500", "162455.852500", "162456.852500", "162457.852500", "162458.852500", "162459.852500", "162500.852500", "162501.852500", "162502.852500", "162503.852500", "162504.852500", "162505.852500", "162506.852500", "162507.852500", "162508.852500", "162509.852500", "162510.852500", "162511.852500", "162512.852500", "162513.852500", "162514.852500", "162515.852500", "162516.852500", "162517.852500", "162518.852500", "162519.852500"],
      "ContentTime": ["162319.663000", "162319.677000", "162319.680000", "162319.689000", "162319.692000", "162319.694000", "162319.697000", "162319.706000", "162319.708000", "162319.711000", "162319.714000", "162319.727000", "162319.730000", "162319.740000", "162319.743000", "162319.746000", "162319.749000", "162319.760000", "162319.762000", "162319.765000", "162319.772000", "162339.631000", "162339.634000", "162339.637000", "162339.640000", "162339.643000", "162339.646000", "162339.649000", "162339.651000", "162339.654000", "162339.657000", "162339.660000", "162339.663000", "162339.666000", "162339.669000", "162339.672000", "162339.675000", "162339.682000", "162339.685000", "162339.688000", "162339.691000", "162339.693000", "162339.696000", "162339.699000", "162339.702000", "162339.705000", "162339.708000", "162339.711000", "162339.714000", "162359.631000", "162359.634000", "162359.637000", "162359.640000", "162359.643000", "162359.646000", "162359.649000", "162359.652000", "162359.655000", "162359.658000", "162359.661000", "162359.664000", "162359.666000", "162359.674000", "162359.677000", "162359.680000", "162359.683000", "162359.686000", "162359.689000", "162359.692000", "162359.695000", "162359.697000", "162359.700000", "162359.703000", "162359.706000", "162359.709000", "162359.712000", "162359.714000", "162419.630000", "162419.633000", "162419.636000", "162419.640000", "162419.643000", "162419.645000", "162419.648000", "162419.651000", "162419.654000", "162419.657000", "162419.660000", "162419.663000", "162419.666000", "162419.669000", "162419.672000", "162419.675000", "162419.678000", "162419.681000", "162419.683000", "162419.687000", "162419.689000", "162419.692000", "162419.695000", "162419.698000", "162419.701000", "162419.704000", "162419.707000", "162419.710000", "162439.630000", "162439.633000", "162439.636000", "162439.640000", "162439.643000", "162439.645000", "162439.648000", "162439.651000", "162439.654000", "162439.657000", "162439.660000", "162439.663000", "162439.666000", "162439.669000", "162439.672000", "162439.675000", "162439.678000", "162439.681000", "162439.684000", "162439.687000", "162439.690000", "162439.692000", "162439.695000", "162439.698000", "162439.701000", "162439.704000", "162439.707000", "162439.710000", "162459.630000", "162459.634000", "162459.638000", "162459.641000", "162459.644000", "162459.647000", "162459.650000", "162459.653000", "162459.656000", "162459.659000", "162459.662000", "162459.665000", "162459.668000", "162459.671000", "162459.674000", "162459.677000", "162459.680000", "162459.682000", "162459.685000", "162459.688000", "162459.691000", "162459.694000", "162459.697000", "162459.700000", "162459.703000", "162459.706000", "162459.709000", "162459.711000", "162519.631000", "162519.634000", "162519.637000", "162519.640000", "162519.643000", "162519.646000", "162519.649000", "162519.652000", "162519.655000", "162519.658000", "162519.661000", "162519.664000", "162519.667000", "162519.670000", "162519.673000", "162519.676000", "162519.679000", "162519.681000", "162519.684000", "162519.687000", "162519.690000", "162519.693000", "162519.696000", "162519.699000", "162519.702000", "162519.705000", "162519.708000", "162519.711000", "162521.781000", "162521.784000", "162521.787000"],
      "InstanceCreationTime": ["162319.663000", "162319.677000", "162319.680000", "162319.689000", "162319.692000", "162319.694000", "162319.697000", "162319.706000", "162319.708000", "162319.711000", "162319.714000", "162319.727000", "162319.730000", "162319.740000", "162319.743000", "162319.746000", "162319.749000", "162319.760000", "162319.762000", "162319.765000", "162319.772000", "162339.631000", "162339.634000", "162339.637000", "162339.640000", "162339.643000", "162339.646000", "162339.649000", "162339.651000", "162339.654000", "162339.657000", "162339.660000", "162339.663000", "162339.666000", "162339.669000", "162339.672000", "162339.675000", "162339.682000", "162339.685000", "162339.688000", "162339.691000", "162339.693000", "162339.696000", "162339.699000", "162339.702000", "162339.705000", "162339.708000", "162339.711000", "162339.714000", "162359.631000", "162359.634000", "162359.637000", "162359.640000", "162359.643000", "162359.646000", "162359.649000", "162359.652000", "162359.655000", "162359.658000", "162359.661000", "162359.664000", "162359.666000", "162359.674000", "162359.677000", "162359.680000", "162359.683000", "162359.686000", "162359.689000", "162359.692000", "162359.695000", "162359.697000", "162359.700000", "162359.703000", "162359.706000", "162359.709000", "162359.712000", "162359.714000", "162419.630000", "162419.633000", "162419.636000", "162419.640000", "162419.643000", "162419.645000", "162419.648000", "162419.651000", "162419.654000", "162419.657000", "162419.660000", "162419.663000", "162419.666000", "162419.669000", "162419.672000", "162419.675000", "162419.678000", "162419.681000", "162419.683000", "162419.687000", "162419.689000", "162419.692000", "162419.695000", "162419.698000", "162419.701000", "162419.704000", "162419.707000", "162419.710000", "162439.630000", "162439.633000", "162439.636000", "162439.640000", "162439.643000", "162439.645000", "162439.648000", "162439.651000", "162439.654000", "162439.657000", "162439.660000", "162439.663000", "162439.666000", "162439.669000", "162439.672000", "162439.675000", "162439.678000", "162439.681000", "162439.684000", "162439.687000", "162439.690000", "162439.692000", "162439.695000", "162439.698000", "162439.701000", "162439.704000", "162439.707000", "162439.710000", "162459.630000", "162459.634000", "162459.638000", "162459.641000", "162459.644000", "162459.647000", "162459.650000", "162459.653000", "162459.656000", "162459.659000", "162459.662000", "162459.665000", "162459.668000", "162459.671000", "162459.674000", "162459.677000", "162459.680000", "162459.682000", "162459.685000", "162459.688000", "162459.691000", "162459.694000", "162459.697000", "162459.700000", "162459.703000", "162459.706000", "162459.709000", "162459.711000", "162519.631000", "162519.634000", "162519.637000", "162519.640000", "162519.643000", "162519.646000", "162519.649000", "162519.652000", "162519.655000", "162519.658000", "162519.661000", "162519.664000", "162519.667000", "162519.670000", "162519.673000", "162519.676000", "162519.679000", "162519.681000", "162519.684000", "162519.687000", "162519.690000", "162519.693000", "162519.696000", "162519.699000", "162519.702000", "162519.705000", "162519.708000", "162519.711000", "162521.781000", "162521.784000", "162521.787000"],
      "InstanceNumber": [1, 2, 3, 4, 5, 6, 7, 8, 9, 10, 11, 12, 13, 14, 15, 16, 17, 18, 19, 20, 21, 22, 23, 24, 25, 26, 27, 28, 29, 30, 31, 32, 33, 34, 35, 36, 37, 38, 39, 40, 41, 42, 43, 44, 45, 46, 47, 48, 49, 50, 51, 52, 53, 54, 55, 56, 57, 58, 59, 60, 61, 62, 63, 64, 65, 66, 67, 68, 69, 70, 71, 72, 73, 74, 75, 76, 77, 78, 79, 80, 81, 82, 83, 84, 85, 86, 87, 88, 89, 90, 91, 92, 93, 94, 95, 96, 97, 98, 99, 100, 101, 102, 103, 104, 105, 106, 107, 108, 109, 110, 111, 112, 113, 114, 115, 116, 117, 118, 119, 120, 121, 122, 123, 124, 125, 126, 127, 128, 129, 130, 131, 132, 133, 134, 135, 136, 137, 138, 139, 140, 141, 142, 143, 144, 145, 146, 147, 148, 149, 150, 151, 152, 153, 154, 155, 156, 157, 158, 159, 160, 161, 162, 163, 164, 165, 166, 167, 168, 169, 170, 171, 172, 173, 174, 175, 176, 177, 178, 179, 180, 181, 182, 183, 184, 185, 186, 187, 188, 189, 190, 191, 192],
      "LargestImagePixelValue": [37442, 36770, 36061, 35684, 35536, 35442, 34858, 35249, 35340, 34926, 35299, 35023, 35541, 35466, 34965, 35599, 35142, 34979, 35174, 34940, 34936, 35033, 34282, 34661, 34700, 34582, 34766, 34809, 34378, 34643, 34625, 34796, 34349, 34320, 34125, 34881, 33929, 34386, 34434, 33821, 34196, 34000, 34051, 34672, 33938, 34496, 34615, 34217, 34372, 34439, 34674, 34672, 34190, 34091, 34482, 33932, 34120, 34447, 34101, 34260, 34537, 34266, 34261, 34055, 34154, 33959, 33845, 33847, 33885, 34044, 33897, 33882, 33759, 34151, 34365, 34077, 34200, 34209, 34188, 34187, 34085, 33731, 33874, 33871, 34395, 34027, 34232, 34122, 34038, 34338, 34251, 34044, 34263, 34152, 33882, 34075, 33812, 34098, 34328, 34008, 34103, 33781, 33723, 34064, 34195, 33778, 34274, 33883, 34037, 34136, 33819, 33963, 34215, 33891, 34015, 33877, 33973, 33924, 33629, 34087, 33663, 34220, 33996, 33637, 33862, 33823, 33955, 34225, 33791, 33849, 34290, 33860, 34367, 34287, 34134, 33832, 33778, 33716, 33802, 34268, 33794, 33908, 33788, 33637, 33816, 34059, 33735, 34048, 34039, 34045, 33605, 33996, 33913, 33814, 33853, 33574, 33866, 33948, 33719, 34014, 33730, 33924, 34550, 33968, 33675, 33902, 33695, 33721, 33911, 33852, 34358, 33834, 34038, 34205, 33913, 33924, 34047, 34096, 34333, 33818, 34168, 34042, 34099, 34056, 34115, 34124, 34027, 33990, 34500, 34251, 34070, 34219],
      "WindowCenter": [9872.0, 9827.0, 9809.0, 9800.0, 9798.0, 9799.0, 9792.0, 9801.0, 9801.0, 9794.0, 9786.0, 9770.0, 9777.0, 9779.0, 9776.0, 9798.0, 9815.0, 9810.0, 9810.0, 9805.0, 9803.0, 9803.0, 9798.0, 9798.0, 9804.0, 9804.0, 9801.0, 9804.0, 9799.0, 9804.0, 9813.0, 9813.0, 9808.0, 9806.0, 9799.0, 9803.0, 9799.0, 9801.0, 9812.0, 9802.0, 9804.0, 9795.0, 9792.0, 9797.0, 9790.0, 9788.0, 9788.0, 9783.0, 9780.0, 9792.0, 9788.0, 9791.0, 9790.0, 9788.0, 9779.0, 9781.0, 9781.0, 9795.0, 9799.0, 9798.0, 9804.0, 9798.0, 9789.0, 9791.0, 9797.0, 9801.0, 9818.0, 9811.0, 9802.0, 9800.0, 9786.0, 9783.0, 9777.0, 9783.0, 9789.0, 9797.0, 9799.0, 9809.0, 9806.0, 9793.0, 9789.0, 9770.0, 9766.0, 9765.0, 9771.0, 9764.0, 9770.0, 9779.0, 9782.0, 9796.0, 9798.0, 9798.0, 9789.0, 9788.0, 9787.0, 9788.0, 9791.0, 9805.0, 9811.0, 9800.0, 9797.0, 9790.0, 9776.0, 9779.0, 9793.0, 9790.0, 9797.0, 9799.0, 9800.0, 9805.0, 9800.0, 9793.0, 9805.0, 9802.0, 9807.0, 9811.0, 9801.0, 9802.0, 9788.0, 9784.0, 9778.0, 9774.0, 9774.0, 9777.0, 9783.0, 9785.0, 9786.0, 9787.0, 9782.0, 9782.0, 9781.0, 9781.0, 9783.0, 9794.0, 9805.0, 9800.0, 9816.0, 9813.0, 9804.0, 9804.0, 9787.0, 9790.0, 9785.0, 9778.0, 9783.0, 9777.0, 9770.0, 9783.0, 9781.0, 9788.0, 9778.0, 9781.0, 9782.0, 9774.0, 9782.0, 9778.0, 9775.0, 9775.0, 9769.0, 9767.0, 9761.0, 9765.0, 9779.0, 9795.0, 9801.0, 9807.0, 9795.0, 9780.0, 9782.0, 9774.0, 9773.0, 9781.0, 9788.0, 9803.0, 9805.0, 9794.0, 9791.0, 9796.0, 9789.0, 9778.0, 9782.0, 9777.0, 9796.0, 9806.0, 9820.0, 9833.0, 9820.0, 9813.0, 9807.0, 9778.0, 9762.0, 9767.0],
      "WindowWidth": [21171.0, 21049.0, 20995.0, 20969.0, 20959.0, 20959.0, 20946.0, 20966.0, 20965.0, 20949.0, 20930.0, 20896.0, 20904.0, 20910.0, 20909.0, 20957.0, 20997.0, 20991.0, 20990.0, 20981.0, 20974.0, 20976.0, 20968.0, 20966.0, 20976.0, 20974.0, 20967.0, 20975.0, 20966.0, 20978.0, 20998.0, 20998.0, 20988.0, 20983.0, 20967.0, 20974.0, 20969.0, 20973.0, 20998.0, 20979.0, 20978.0, 20962.0, 20952.0, 20958.0, 20946.0, 20939.0, 20940.0, 20931.0, 20924.0, 20948.0, 20940.0, 20945.0, 20945.0, 20938.0, 20919.0, 20925.0, 20926.0, 20955.0, 20966.0, 20965.0, 20976.0, 20965.0, 20946.0, 20952.0, 20963.0, 20978.0, 21015.0, 21003.0, 20983.0, 20976.0, 20944.0, 20934.0, 20922.0, 20932.0, 20944.0, 20963.0, 20969.0, 20991.0, 20984.0, 20955.0, 20941.0, 20903.0, 20891.0, 20887.0, 20898.0, 20886.0, 20896.0, 20917.0, 20927.0, 20958.0, 20964.0, 20965.0, 20942.0, 20937.0, 20936.0, 20940.0, 20950.0, 20979.0, 20993.0, 20971.0, 20960.0, 20945.0, 20915.0, 20917.0, 20947.0, 20946.0, 20962.0, 20968.0, 20971.0, 20981.0, 20971.0, 20957.0, 20983.0, 20978.0, 20990.0, 20997.0, 20977.0, 20978.0, 20947.0, 20934.0, 20922.0, 20909.0, 20911.0, 20921.0, 20933.0, 20939.0, 20942.0, 20940.0, 20931.0, 20930.0, 20925.0, 20927.0, 20932.0, 20957.0, 20983.0, 20976.0, 21010.0, 21006.0, 20986.0, 20981.0, 20943.0, 20947.0, 20937.0, 20923.0, 20931.0, 20919.0, 20908.0, 20931.0, 20927.0, 20942.0, 20921.0, 20923.0, 20926.0, 20908.0, 20926.0, 20921.0, 20912.0, 20912.0, 20901.0, 20895.0, 20882.0, 20888.0, 20921.0, 20959.0, 20976.0, 20989.0, 20963.0, 20928.0, 20925.0, 20907.0, 20905.0, 20922.0, 20941.0, 20972.0, 20979.0, 20955.0, 20948.0, 20956.0, 20943.0, 20921.0, 20926.0, 20920.0, 20959.0, 20986.0, 21018.0, 21046.0, 21021.0, 21004.0, 20982.0, 20919.0, 20884.0, 20890.0]
    },
    "slices": {}
  },
  "NumberOfVolumes": 192
}