{
  "AcquisitionMatrixPE": 104,
  "AcquisitionNumber": 1,
  "AcquisitionTime": "16:38:18.817500",
  "BandwidthPerPixelPhaseEncode": 16.578,
  "BaseResolution": 104,
  "BodyPartExamined": "BRAIN",
  "ConsistencyInfo": "N4_VE11C_LATEST_20160120",
  "ConversionSoftware": "dcm2niix",
  "ConversionSoftwareVersion": "v1.0.20190902",
  "DerivedVendorReportedEchoSpacing": 0.000580009,
  "DeviceSerialNumber": "166018",
  "DwellTime": 2.1e-06,
  "EchoTime": 0.037,
  "EchoTrainLength": 104,
  "EffectiveEchoSpacing": 0.000580009,
  "FlipAngle": 68,
  "ImageComments": "Unaliased_MB6_PE3_LB",
  "ImageOrientationPatientDICOM": [0.998865, 0.0428984, 0.0206747, -0.0425635, 0.99896, -0.0163773],
  "ImageType": [
    "ORIGINAL",
    "PRIMARY",
    "M",
    "MB",
    "ND",
    "MOSAIC"
],
  "ImagingFrequency": 123.191,
  "InPlanePhaseEncodingDirectionDICOM": "COL",
  "InstitutionAddress": "Washington_Place_6_NYC_NYC_US_10003",
  "InstitutionName": "NYU_-_CBI",
  "InstitutionalDepartmentName": "Department",
  "MRAcquisitionType": "2D",
  "MagneticFieldStrength": 3,
  "Manufacturer": "Siemens",
  "ManufacturersModelName": "Prisma",
  "Modality": "MR",
  "MultibandAccelerationFactor": 6,
  "PartialFourier": 1,
  "PatientPosition": "HFS",
  "PercentPhaseFOV": 100,
  "PhaseEncodingDirection": "j",
  "PhaseEncodingSteps": 104,
  "PhaseResolution": 1,
  "PixelBandwidth": 2290,
  "ProcedureStepDescription": "Investigators_Winawer",
  "ProtocolName": "cmrr_mbepi_s6_2mm_66sl_PA_TR1.0",
  "PulseSequenceDetails": "%CustomerSeq%_cmrr_mbep2d_bold",
  "ReceiveCoilActiveElements": "HC1-7",
  "ReceiveCoilName": "HeadNeck_64",
  "ReconMatrixPE": 104,
  "RepetitionTime": 1,
  "SAR": 0.0673717,
  "ScanOptions": "FS",
  "ScanningSequence": "EP",
  "SequenceName": "epfid2d1_104",
  "SequenceVariant": "SK_SS",
  "SeriesDescription": "cmrr_mbepi_s6_2mm_66sl_PA_TR1.0",
  "SeriesNumber": 30,
  "ShimSetting": [277, -12571, -8534, 278, -14, -5, 51, -2],
  "SliceThickness": 2,
  "SliceTiming": [0, 0.535, 0.09, 0.6225, 0.1775, 0.7125, 0.2675, 0.8025, 0.355, 0.89, 0.445, 0, 0.535, 0.09, 0.6225, 0.1775, 0.7125, 0.2675, 0.8025, 0.355, 0.89, 0.445, 0, 0.535, 0.09, 0.6225, 0.1775, 0.7125, 0.2675, 0.8025, 0.355, 0.89, 0.445, 0, 0.535, 0.09, 0.6225, 0.1775, 0.7125, 0.2675, 0.8025, 0.355, 0.89, 0.445, 0, 0.535, 0.09, 0.6225, 0.1775, 0.7125, 0.2675, 0.8025, 0.355, 0.89, 0.445, 0, 0.535, 0.09, 0.6225, 0.1775, 0.7125, 0.2675, 0.8025, 0.355, 0.89, 0.445],
  "SoftwareVersions": "syngo_MR_E11",
  "SpacingBetweenSlices": 2,
  "StationName": "AWP166018",
  "TaskName": "prf",
  "TotalReadoutTime": 0.0597409,
  "TxRefAmp": 205.563,
  "WipMemBlock": "21d11ccc-75bd-4571-a5d4-898936830f3c||Sequence: ve11c/master r/ab69a6c; Apr 19 2017 09:47:47 by eja",
  "dcmmeta_affine": [
    [-1.9977309703826904, -0.08512690663337708, 0.0427115261554718, 111.0504379272461],
    [-0.0857967883348465, 1.9979190826416016, -0.030957387760281563, -83.35585021972656],
    [0.04134942963719368, 0.03275452181696892, 1.999304175376892, -41.87906265258789],
    [0.0, 0.0, 0.0, 1.0]
],
  "dcmmeta_reorient_transform": [
    [0.0, -1.0, 0.0, 103.0],
    [1.0, 0.0, 0.0, 0.0],
    [0.0, 0.0, 1.0, 0.0],
    [0.0, 0.0, 0.0, 1.0]
],
  "dcmmeta_shape": [104, 104, 66, 192],
  "dcmmeta_slice_dim": 2,
  "dcmmeta_version": 0.6,
  "global": {
    "const": {
      "AccessionNumber": "j9yLnzuo",
      "AcquisitionMatrix": [104, 0, 0, 104],
      "AngioFlag": "N",
      "BitsAllocated": 16,
      "BitsStored": 16,
      "BodyPartExamined": "BRAIN",
      "Columns": 936,
      "EchoNumbers": 1,
      "EchoTime": 37.0,
      "EchoTrainLength": 104,
      "FlipAngle": 68.0,
      "HighBit": 15,
      "ImageOrientationPatient": [0.99886549836743, 0.04289839512642, 0.02067471563915, -0.0425634536089, 0.99895952756743, -0.0163772616497],
      "ImagePositionPatient": [-897.92566420561, -989.25560713314, -42.080827578655],
      "ImageType": [
        "ORIGINAL",
        "PRIMARY",
        "M",
        "MB",
        "ND",
        "MOSAIC"
],
      "ImagedNucleus": "1H",
      "ImagingFrequency": 123.191304,
      "InPlanePhaseEncodingDirection": "COL",
      "MRAcquisitionType": "2D",
      "MagneticFieldStrength": 3.0,
      "Manufacturer": "SIEMENS",
      "ManufacturerModelName": "Prisma",
      "Modality": "MR",
      "NumberOfAverages": 1.0,
      "NumberOfPhaseEncodingSteps": 104,
      "PercentPhaseFieldOfView": 100.0,
      "PercentSampling": 100.0,
      "PerformedProcedureStepStartTime": "153632.718000",
      "PhotometricInterpretation": "MONOCHROME2",
      "PixelBandwidth": 2290.0,
      "PixelRepresentation": 0,
      "PixelSpacing": [2.0, 2.0],
      "ProtocolName": "cmrr_mbepi_s6_2mm_66sl_PA_TR1.0",
      "RepetitionTime": 1000.0,
      "Rows": 936,
      "SAR": 0.06737168448902,
      "SamplesPerPixel": 1,
      "ScanOptions": "FS",
      "ScanningSequence": "EP",
      "SequenceName": "epfid2d1_104",
      "SequenceVariant": [
        "SK",
        "SS"
],
      "SeriesDescription": "cmrr_mbepi_s6_2mm_66sl_PA_TR1.0",
      "SeriesNumber": 30,
      "SeriesTime": "163936.550000",
      "SliceLocation": -38.202686089358,
      "SliceThickness": 2.0,
      "SmallestImagePixelValue": 0,
      "SoftwareVersions": "syngo MR E11",
      "SpacingBetweenSlices": 1.9999999787566,
      "SpecificCharacterSet": "ISO_IR 100",
      "StudyID": "1",
      "StudyTime": "153632.662000",
      "TransmitCoilName": "Body",
      "VariableFlipAngleFlag": "N",
      "WindowCenterWidthExplanation": "Algo1",
      "dBdt": 0.0},
    "slices": {}
  },
  "time": {
    "samples": {
      "AcquisitionNumber": [1, 2, 3, 4, 5, 6, 7, 8, 9, 10, 11, 12, 13, 14, 15, 16, 17, 18, 19, 20, 21, 22, 23, 24, 25, 26, 27, 28, 29, 30, 31, 32, 33, 34, 35, 36, 37, 38, 39, 40, 41, 42, 43, 44, 45, 46, 47, 48, 49, 50, 51, 52, 53, 54, 55, 56, 57, 58, 59, 60, 61, 62, 63, 64, 65, 66, 67, 68, 69, 70, 71, 72, 73, 74, 75, 76, 77, 78, 79, 80, 81, 82, 83, 84, 85, 86, 87, 88, 89, 90, 91, 92, 93, 94, 95, 96, 97, 98, 99, 100, 101, 102, 103, 104, 105, 106, 107, 108, 109, 110, 111, 112, 113, 114, 115, 116, 117, 118, 119, 120, 121, 122, 123, 124, 125, 126, 127, 128, 129, 130, 131, 132, 133, 134, 135, 136, 137, 138, 139, 140, 141, 142, 143, 144, 145, 146, 147, 148, 149, 150, 151, 152, 153, 154, 155, 156, 157, 158, 159, 160, 161, 162, 163, 164, 165, 166, 167, 168, 169, 170, 171, 172, 173, 174, 175, 176, 177, 178, 179, 180, 181, 182, 183, 184, 185, 186, 187, 188, 189, 190, 191, 192],
      "AcquisitionTime": ["163818.817500", "163819.817500", "163820.817500", "163821.817500", "163822.817500", "163823.817500", "163824.817500", "163825.817500", "163826.817500", "163827.817500", "163828.817500", "163829.817500", "163830.817500", "163831.817500", "163832.817500", "163833.817500", "163834.817500", "163835.817500", "163836.817500", "163837.817500", "163838.817500", "163839.817500", "163840.817500", "163841.817500", "163842.817500", "163843.817500", "163844.817500", "163845.817500", "163846.817500", "163847.817500", "163848.817500", "163849.817500", "163850.817500", "163851.817500", "163852.817500", "163853.817500", "163854.817500", "163855.817500", "163856.817500", "163857.817500", "163858.817500", "163859.817500", "163900.817500", "163901.817500", "163902.817500", "163903.817500", "163904.817500", "163905.817500", "163906.817500", "163907.817500", "163908.817500", "163909.817500", "163910.817500", "163911.817500", "163912.817500", "163913.817500", "163914.817500", "163915.817500", "163916.817500", "163917.817500", "163918.817500", "163919.817500", "163920.817500", "163921.817500", "163922.817500", "163923.817500", "163924.817500", "163925.817500", "163926.817500", "163927.817500", "163928.817500", "163929.817500", "163930.817500", "163931.817500", "163932.817500", "163933.817500", "163934.817500", "163935.817500", "163936.817500", "163937.817500", "163938.817500", "163939.817500", "163940.817500", "163941.817500", "163942.817500", "163943.817500", "163944.817500", "163945.817500", "163946.817500", "163947.817500", "163948.817500", "163949.817500", "163950.817500", "163951.817500", "163952.817500", "163953.817500", "163954.817500", "163955.817500", "163956.817500", "163957.817500", "163958.817500", "163959.817500", "164000.817500", "164001.817500", "164002.817500", "164003.817500", "164004.817500", "164005.817500", "164006.817500", "164007.817500", "164008.817500", "164009.817500", "164010.817500", "164011.817500", "164012.817500", "164013.817500", "164014.817500", "164015.817500", "164016.817500", "164017.817500", "164018.817500", "164019.817500", "164020.817500", "164021.817500", "164022.817500", "164023.817500", "164024.817500", "164025.817500", "164026.817500", "164027.817500", "164028.817500", "164029.817500", "164030.817500", "164031.817500", "164032.817500", "164033.817500", "164034.817500", "164035.817500", "164036.817500", "164037.817500", "164038.817500", "164039.817500", "164040.817500", "164041.817500", "164042.817500", "164043.817500", "164044.817500", "164045.817500", "164046.817500", "164047.817500", "164048.817500", "164049.817500", "164050.817500", "164051.817500", "164052.817500", "164053.817500", "164054.817500", "164055.817500", "164056.817500", "164057.817500", "164058.817500", "164059.817500", "164100.817500", "164101.817500", "164102.817500", "164103.817500", "164104.817500", "164105.817500", "164106.817500", "164107.817500", "164108.817500", "164109.817500", "164110.817500", "164111.817500", "164112.817500", "164113.817500", "164114.817500", "164115.817500", "164116.817500", "164117.817500", "164118.817500", "164119.817500", "164120.817500", "164121.817500", "164122.817500", "164123.817500", "164124.817500", "164125.817500", "164126.817500", "164127.817500", "164128.817500", "164129.817500"],
      "ContentTime": ["163936.553000", "163936.556000", "163936.560000", "163936.563000", "163936.566000", "163936.569000", "163936.571000", "163936.576000", "163936.579000", "163936.582000", "163936.585000", "163936.588000", "163936.594000", "163936.597000", "163936.599000", "163936.602000", "163936.606000", "163936.609000", "163936.611000", "163936.614000", "163936.617000", "163936.620000", "163936.623000", "163936.626000", "163936.629000", "163936.632000", "163936.635000", "163936.638000", "163936.641000", "163936.644000", "163956.521000", "163956.524000", "163956.527000", "163956.530000", "163956.533000", "163956.536000", "163956.539000", "163956.542000", "163956.545000", "163956.547000", "163956.550000", "163956.553000", "163956.556000", "163956.559000", "163956.562000", "163956.565000", "163956.568000", "163956.584000", "163956.587000", "163956.594000", "163956.597000", "163956.600000", "163956.603000", "163956.605000", "163956.608000", "163956.611000", "163956.614000", "163956.617000", "163956.620000", "164016.521000", "164016.524000", "164016.527000", "164016.530000", "164016.533000", "164016.536000", "164016.539000", "164016.542000", "164016.545000", "164016.547000", "164016.550000", "164016.553000", "164016.556000", "164016.559000", "164016.562000", "164016.565000", "164016.568000", "164016.571000", "164016.574000", "164016.577000", "164016.580000", "164016.583000", "164016.586000", "164016.589000", "164016.592000", "164016.602000", "164016.605000", "164016.608000", "164036.521000", "164036.524000", "164036.527000", "164036.530000", "164036.533000", "164036.536000", "164036.545000", "164036.548000", "164036.551000", "164036.554000", "164036.557000", "164036.560000", "164036.562000", "164036.565000", "164036.568000", "164036.571000", "164036.574000", "164036.577000", "164036.580000", "164036.583000", "164036.586000", "164036.589000", "164036.592000", "164036.595000", "164036.597000", "164036.600000", "164036.603000", "164036.606000", "164056.520000", "164056.523000", "164056.526000", "164056.529000", "164056.532000", "164056.535000", "164056.538000", "164056.540000", "164056.544000", "164056.556000", "164056.559000", "164056.562000", "164056.565000", "164056.568000", "164056.570000", "164056.573000", "164056.576000", "164056.579000", "164056.582000", "164056.585000", "164056.588000", "164056.591000", "164056.594000", "164056.597000", "164056.600000", "164056.603000", "164056.605000", "164056.608000", "164056.611000", "164116.520000", "164116.523000", "164116.526000", "164116.529000", "164116.532000", "164116.535000", "164116.538000", "164116.541000", "164116.543000", "164116.546000", "164116.549000", "164116.552000", "164116.555000", "164116.558000", "164116.561000", "164116.564000", "164116.567000", "164116.570000", "164116.573000", "164116.576000", "164116.579000", "164116.581000", "164116.584000", "164116.587000", "164116.590000", "164116.593000", "164116.596000", "164116.599000", "164131.238000", "164131.241000", "164131.244000", "164131.247000", "164131.250000", "164131.253000", "164131.256000", "164131.259000", "164131.261000", "164131.264000", "164131.267000", "164131.270000", "164131.273000", "164131.276000", "164131.279000", "164131.282000", "164131.285000", "164131.288000", "164131.291000", "164131.294000"],
      "InstanceCreationTime": ["163936.553000", "163936.556000", "163936.560000", "163936.563000", "163936.566000", "163936.569000", "163936.571000", "163936.576000", "163936.579000", "163936.582000", "163936.585000", "163936.588000", "163936.594000", "163936.597000", "163936.599000", "163936.602000", "163936.606000", "163936.609000", "163936.611000", "163936.614000", "163936.617000", "163936.620000", "163936.623000", "163936.626000", "163936.629000", "163936.632000", "163936.635000", "163936.638000", "163936.641000", "163936.644000", "163956.521000", "163956.524000", "163956.527000", "163956.530000", "163956.533000", "163956.536000", "163956.539000", "163956.542000", "163956.545000", "163956.547000", "163956.550000", "163956.553000", "163956.556000", "163956.559000", "163956.562000", "163956.565000", "163956.568000", "163956.584000", "163956.587000", "163956.594000", "163956.597000", "163956.600000", "163956.603000", "163956.605000", "163956.608000", "163956.611000", "163956.614000", "163956.617000", "163956.620000", "164016.521000", "164016.524000", "164016.527000", "164016.530000", "164016.533000", "164016.536000", "164016.539000", "164016.542000", "164016.545000", "164016.547000", "164016.550000", "164016.553000", "164016.556000", "164016.559000", "164016.562000", "164016.565000", "164016.568000", "164016.571000", "164016.574000", "164016.577000", "164016.580000", "164016.583000", "164016.586000", "164016.589000", "164016.592000", "164016.602000", "164016.605000", "164016.608000", "164036.521000", "164036.524000", "164036.527000", "164036.530000", "164036.533000", "164036.536000", "164036.545000", "164036.548000", "164036.551000", "164036.554000", "164036.557000", "164036.560000", "164036.562000", "164036.565000", "164036.568000", "164036.571000", "164036.574000", "164036.577000", "164036.580000", "164036.583000", "164036.586000", "164036.589000", "164036.592000", "164036.595000", "164036.597000", "164036.600000", "164036.603000", "164036.606000", "164056.520000", "164056.523000", "164056.526000", "164056.529000", "164056.532000", "164056.535000", "164056.538000", "164056.540000", "164056.544000", "164056.556000", "164056.559000", "164056.562000", "164056.565000", "164056.568000", "164056.570000", "164056.573000", "164056.576000", "164056.579000", "164056.582000", "164056.585000", "164056.588000", "164056.591000", "164056.594000", "164056.597000", "164056.600000", "164056.603000", "164056.605000", "164056.608000", "164056.611000", "164116.520000", "164116.523000", "164116.526000", "164116.529000", "164116.532000", "164116.535000", "164116.538000", "164116.541000", "164116.543000", "164116.546000", "164116.549000", "164116.552000", "164116.555000", "164116.558000", "164116.561000", "164116.564000", "164116.567000", "164116.570000", "164116.573000", "164116.576000", "164116.579000", "164116.581000", "164116.584000", "164116.587000", "164116.590000", "164116.593000", "164116.596000", "164116.599000", "164131.238000", "164131.241000", "164131.244000", "164131.247000", "164131.250000", "164131.253000", "164131.256000", "164131.259000", "164131.261000", "164131.264000", "164131.267000", "164131.270000", "164131.273000", "164131.276000", "164131.279000", "164131.282000", "164131.285000", "164131.288000", "164131.291000", "164131.294000"],
      "InstanceNumber": [1, 2, 3, 4, 5, 6, 7, 8, 9, 10, 11, 12, 13, 14, 15, 16, 17, 18, 19, 20, 21, 22, 23, 24, 25, 26, 27, 28, 29, 30, 31, 32, 33, 34, 35, 36, 37, 38, 39, 40, 41, 42, 43, 44, 45, 46, 47, 48, 49, 50, 51, 52, 53, 54, 55, 56, 57, 58, 59, 60, 61, 62, 63, 64, 65, 66, 67, 68, 69, 70, 71, 72, 73, 74, 75, 76, 77, 78, 79, 80, 81, 82, 83, 84, 85, 86, 87, 88, 89, 90, 91, 92, 93, 94, 95, 96, 97, 98, 99, 100, 101, 102, 103, 104, 105, 106, 107, 108, 109, 110, 111, 112, 113, 114, 115, 116, 117, 118, 119, 120, 121, 122, 123, 124, 125, 126, 127, 128, 129, 130, 131, 132, 133, 134, 135, 136, 137, 138, 139, 140, 141, 142, 143, 144, 145, 146, 147, 148, 149, 150, 151, 152, 153, 154, 155, 156, 157, 158, 159, 160, 161, 162, 163, 164, 165, 166, 167, 168, 169, 170, 171, 172, 173, 174, 175, 176, 177, 178, 179, 180, 181, 182, 183, 184, 185, 186, 187, 188, 189, 190, 191, 192],
      "LargestImagePixelValue": [37955, 37147, 36877, 36272, 35874, 35854, 35235, 35688, 36112, 35914, 35640, 35636, 36237, 36449, 35658, 36178, 35532, 36121, 36944, 36550, 36606, 36938, 36233, 36592, 36566, 36416, 36868, 36708, 36956, 37235, 36213, 36583, 36751, 35735, 36802, 36022, 36479, 35997, 35824, 36404, 36377, 36265, 36656, 36271, 36480, 36354, 35872, 37055, 36791, 36613, 36451, 35783, 36108, 35322, 34776, 35521, 34595, 34559, 35755, 35226, 34938, 35625, 35078, 35256, 35643, 35431, 35523, 35792, 36139, 36166, 36071, 35962, 35177, 35309, 35265, 34762, 35705, 36358, 36637, 36373, 36594, 36381, 36590, 36821, 36771, 36300, 36688, 36098, 36327, 37052, 37117, 36453, 36678, 37208, 36205, 35996, 36506, 36244, 37123, 36831, 36028, 37165, 36773, 36212, 36781, 36826, 36491, 36680, 36536, 36754, 36478, 36225, 36735, 37116, 36892, 36934, 37037, 36742, 37283, 36318, 36457, 36516, 36418, 37222, 37428, 37131, 37153, 37479, 37069, 37314, 37187, 36431, 36623, 36708, 36675, 36942, 36400, 36708, 37118, 36453, 36836, 36089, 36790, 37566, 36745, 37727, 37118, 37199, 37470, 36744, 37440, 36988, 37479, 37480, 37716, 37488, 37732, 37419, 37390, 37225, 37862, 37711, 37466, 38085, 37654, 38085, 38074, 37769, 38204, 37347, 37800, 37398, 37741, 38035, 38079, 38057, 37586, 37501, 37817, 37778, 38078, 37817, 37162, 37463, 36538, 37359, 36818, 37022, 36925, 37290, 36959, 37627],
      "WindowCenter": [9934.0, 9891.0, 9870.0, 9842.0, 9823.0, 9806.0, 9802.0, 9818.0, 9831.0, 9830.0, 9822.0, 9822.0, 9834.0, 9826.0, 9820.0, 9827.0, 9824.0, 9849.0, 9855.0, 9851.0, 9852.0, 9842.0, 9834.0, 9834.0, 9841.0, 9857.0, 9862.0, 9872.0, 9873.0, 9868.0, 9850.0, 9840.0, 9838.0, 9827.0, 9843.0, 9833.0, 9846.0, 9834.0, 9837.0, 9838.0, 9834.0, 9834.0, 9837.0, 9830.0, 9830.0, 9830.0, 9836.0, 9851.0, 9853.0, 9840.0, 9823.0, 9811.0, 9795.0, 9779.0, 9774.0, 9776.0, 9774.0, 9781.0, 9790.0, 9788.0, 9791.0, 9794.0, 9796.0, 9796.0, 9802.0, 9810.0, 9811.0, 9805.0, 9816.0, 9825.0, 9824.0, 9820.0, 9816.0, 9807.0, 9808.0, 9808.0, 9810.0, 9828.0, 9838.0, 9846.0, 9847.0, 9855.0, 9855.0, 9845.0, 9838.0, 9826.0, 9823.0, 9825.0, 9847.0, 9852.0, 9860.0, 9851.0, 9849.0, 9839.0, 9834.0, 9835.0, 9847.0, 9843.0, 9852.0, 9845.0, 9835.0, 9845.0, 9838.0, 9841.0, 9838.0, 9833.0, 9839.0, 9832.0, 9834.0, 9832.0, 9825.0, 9821.0, 9823.0, 9830.0, 9838.0, 9834.0, 9844.0, 9832.0, 9829.0, 9812.0, 9822.0, 9815.0, 9829.0, 9845.0, 9858.0, 9868.0, 9864.0, 9868.0, 9856.0, 9851.0, 9835.0, 9832.0, 9838.0, 9848.0, 9862.0, 9858.0, 9860.0, 9858.0, 9850.0, 9838.0, 9833.0, 9834.0, 9853.0, 9863.0, 9865.0, 9872.0, 9863.0, 9862.0, 9861.0, 9850.0, 9862.0, 9863.0, 9872.0, 9871.0, 9868.0, 9857.0, 9867.0, 9862.0, 9869.0, 9870.0, 9877.0, 9877.0, 9878.0, 9883.0, 9884.0, 9890.0, 9890.0, 9890.0, 9896.0, 9887.0, 9893.0, 9886.0, 9894.0, 9898.0, 9899.0, 9890.0, 9883.0, 9885.0, 9888.0, 9891.0, 9891.0, 9886.0, 9874.0, 9878.0, 9861.0, 9866.0, 9857.0, 9864.0, 9855.0, 9870.0, 9864.0, 9883.0],
      "WindowWidth": [21321.0, 21203.0, 21143.0, 21075.0, 21026.0, 20987.0, 20978.0, 21008.0, 21036.0, 21038.0, 21022.0, 21022.0, 21043.0, 21025.0, 21017.0, 21030.0, 21029.0, 21081.0, 21093.0, 21089.0, 21090.0, 21064.0, 21049.0, 21045.0, 21062.0, 21098.0, 21109.0, 21132.0, 21135.0, 21120.0, 21083.0, 21056.0, 21049.0, 21029.0, 21059.0, 21042.0, 21070.0, 21047.0, 21054.0, 21053.0, 21046.0, 21044.0, 21049.0, 21034.0, 21034.0, 21034.0, 21048.0, 21078.0, 21083.0, 21054.0, 21016.0, 20991.0, 20952.0, 20919.0, 20909.0, 20910.0, 20909.0, 20923.0, 20939.0, 20940.0, 20947.0, 20954.0, 20960.0, 20961.0, 20974.0, 20990.0, 20995.0, 20981.0, 21005.0, 21026.0, 21023.0, 21015.0, 21008.0, 20989.0, 20992.0, 20991.0, 20992.0, 21028.0, 21049.0, 21067.0, 21070.0, 21089.0, 21089.0, 21065.0, 21048.0, 21026.0, 21017.0, 21026.0, 21074.0, 21082.0, 21099.0, 21084.0, 21073.0, 21051.0, 21041.0, 21046.0, 21069.0, 21062.0, 21077.0, 21063.0, 21046.0, 21062.0, 21049.0, 21057.0, 21050.0, 21043.0, 21054.0, 21039.0, 21045.0, 21040.0, 21025.0, 21017.0, 21019.0, 21034.0, 21053.0, 21046.0, 21063.0, 21039.0, 21028.0, 20994.0, 21013.0, 20999.0, 21029.0, 21064.0, 21092.0, 21118.0, 21109.0, 21114.0, 21091.0, 21072.0, 21039.0, 21035.0, 21048.0, 21073.0, 21104.0, 21101.0, 21108.0, 21101.0, 21081.0, 21058.0, 21043.0, 21045.0, 21084.0, 21110.0, 21118.0, 21127.0, 21109.0, 21104.0, 21101.0, 21080.0, 21104.0, 21110.0, 21130.0, 21129.0, 21119.0, 21097.0, 21115.0, 21110.0, 21124.0, 21127.0, 21140.0, 21141.0, 21144.0, 21154.0, 21157.0, 21170.0, 21167.0, 21167.0, 21180.0, 21162.0, 21176.0, 21162.0, 21177.0, 21183.0, 21185.0, 21166.0, 21151.0, 21158.0, 21164.0, 21170.0, 21168.0, 21159.0, 21134.0, 21139.0, 21109.0, 21116.0, 21098.0, 21109.0, 21090.0, 21120.0, 21110.0, 21148.0]
    },
    "slices": {}
  },
  "NumberOfVolumes": 192
}