{
  "AcquisitionMatrixPE": 104,
  "AcquisitionNumber": 1,
  "AcquisitionTime": "16:36:18.457500",
  "BandwidthPerPixelPhaseEncode": 16.578,
  "BaseResolution": 104,
  "BodyPartExamined": "BRAIN",
  "ConsistencyInfo": "N4_VE11C_LATEST_20160120",
  "ConversionSoftware": "dcm2niix",
  "ConversionSoftwareVersion": "v1.0.20190902",
  "DerivedVendorReportedEchoSpacing": 0.000580009,
  "DeviceSerialNumber": "166018",
  "DwellTime": 2.1e-06,
  "EchoTime": 0.037,
  "EchoTrainLength": 104,
  "EffectiveEchoSpacing": 0.000580009,
  "FlipAngle": 68,
  "ImageComments": "Unaliased_MB6_PE3_LB",
  "ImageOrientationPatientDICOM": [0.996859, 0.0340115, -0.0715212, -0.0503243, 0.969357, -0.240446],
  "ImageType": [
    "ORIGINAL",
    "PRIMARY",
    "M",
    "MB",
    "ND",
    "MOSAIC"
],
  "ImagingFrequency": 123.191,
  "InPlanePhaseEncodingDirectionDICOM": "COL",
  "InstitutionAddress": "Washington_Place_6_NYC_NYC_US_10003",
  "InstitutionName": "NYU_-_CBI",
  "InstitutionalDepartmentName": "Department",
  "MRAcquisitionType": "2D",
  "MagneticFieldStrength": 3,
  "Manufacturer": "Siemens",
  "ManufacturersModelName": "Prisma",
  "Modality": "MR",
  "MultibandAccelerationFactor": 6,
  "PartialFourier": 1,
  "PatientPosition": "HFS",
  "PercentPhaseFOV": 100,
  "PhaseEncodingDirection": "j",
  "PhaseEncodingSteps": 104,
  "PhaseResolution": 1,
  "PixelBandwidth": 2290,
  "ProcedureStepDescription": "Investigators_Winawer",
  "ProtocolName": "cmrr_mbepi_task_prf",
  "PulseSequenceDetails": "%CustomerSeq%_cmrr_mbep2d_bold",
  "ReceiveCoilActiveElements": "HC1-7",
  "ReceiveCoilName": "HeadNeck_64",
  "ReconMatrixPE": 104,
  "RepetitionTime": 1,
  "SAR": 0.0858577,
  "ScanOptions": "FS",
  "ScanningSequence": "EP",
  "SequenceName": "epfid2d1_104",
  "SequenceVariant": "SK_SS",
  "SeriesDescription": "cmrr_mbepi_task_prf",
  "SeriesNumber": 20,
  "ShimSetting": [241, -12588, -8480, 259, -54, 56, -85, -21],
  "SliceThickness": 2,
  "SliceTiming": [0, 0.5325, 0.0875, 0.6225, 0.1775, 0.7125, 0.265, 0.8, 0.355, 0.89, 0.445, 0, 0.5325, 0.0875, 0.6225, 0.1775, 0.7125, 0.265, 0.8, 0.355, 0.89, 0.445, 0, 0.5325, 0.0875, 0.6225, 0.1775, 0.7125, 0.265, 0.8, 0.355, 0.89, 0.445, 0, 0.5325, 0.0875, 0.6225, 0.1775, 0.7125, 0.265, 0.8, 0.355, 0.89, 0.445, 0, 0.5325, 0.0875, 0.6225, 0.1775, 0.7125, 0.265, 0.8, 0.355, 0.89, 0.445, 0, 0.5325, 0.0875, 0.6225, 0.1775, 0.7125, 0.265, 0.8, 0.355, 0.89, 0.445],
  "SoftwareVersions": "syngo_MR_E11",
  "SpacingBetweenSlices": 2,
  "StationName": "AWP166018",
  "TaskName": "prf",
  "TotalReadoutTime": 0.0597409,
  "TxRefAmp": 246.358,
  "WipMemBlock": "a94a5857-3cb1-4497-bbec-e03b79ba9de4||Sequence: R016 ve11c/master r/8780670; Nov 27 2017 15:05:12 by eja",
  "dcmmeta_affine": [
    [-1.9937180280685425, -0.10064857453107834, -0.12230326235294342, 113.70326232910156],
    [-0.0680229589343071, 1.9387143850326538, -0.4865793287754059, -69.42378997802734],
    [-0.14304231107234955, 0.48089131712913513, 1.936048150062561, -52.05989456176758],
    [0.0, 0.0, 0.0, 1.0]
],
  "dcmmeta_reorient_transform": [
    [0.0, -1.0, 0.0, 103.0],
    [1.0, 0.0, 0.0, 0.0],
    [0.0, 0.0, 1.0, 0.0],
    [0.0, 0.0, 0.0, 1.0]
],
  "dcmmeta_shape": [104, 104, 66, 192],
  "dcmmeta_slice_dim": 2,
  "dcmmeta_version": 0.6,
  "global": {
    "const": {
      "AccessionNumber": "jk46q1x8",
      "AcquisitionMatrix": [104, 0, 0, 104],
      "AngioFlag": "N",
      "BitsAllocated": 16,
      "BitsStored": 16,
      "BodyPartExamined": "BRAIN",
      "Columns": 936,
      "EchoNumbers": 1,
      "EchoTime": 37.0,
      "EchoTrainLength": 104,
      "FlipAngle": 68.0,
      "HighBit": 15,
      "ImageOrientationPatient": [0.99685903916049, 0.03401147973648, -0.0715211527464, -0.0503242891267, 0.96935718613184, -0.2404456521097],
      "ImagePositionPatient": [-890.85336994186, -965.06651767914, 257.02829216873],
      "ImageType": [
        "ORIGINAL",
        "PRIMARY",
        "M",
        "MB",
        "ND",
        "MOSAIC"
],
      "ImagedNucleus": "1H",
      "ImagingFrequency": 123.191053,
      "InPlanePhaseEncodingDirection": "COL",
      "MRAcquisitionType": "2D",
      "MagneticFieldStrength": 3.0,
      "Manufacturer": "SIEMENS",
      "ManufacturerModelName": "Prisma",
      "Modality": "MR",
      "NumberOfAverages": 1.0,
      "NumberOfPhaseEncodingSteps": 104,
      "PercentPhaseFieldOfView": 100.0,
      "PercentSampling": 100.0,
      "PerformedProcedureStepStartTime": "155124.855000",
      "PhotometricInterpretation": "MONOCHROME2",
      "PixelBandwidth": 2290.0,
      "PixelRepresentation": 0,
      "PixelSpacing": [2.0, 2.0],
      "ProtocolName": "cmrr_mbepi_task_prf",
      "RepetitionTime": 1000.0,
      "Rows": 936,
      "SAR": 0.08585768075614,
      "SamplesPerPixel": 1,
      "ScanOptions": "FS",
      "ScanningSequence": "EP",
      "SequenceName": "epfid2d1_104",
      "SequenceVariant": [
        "SK",
        "SS"
],
      "SeriesDescription": "cmrr_mbepi_task_prf",
      "SeriesNumber": 20,
      "SeriesTime": "163712.271000",
      "SliceLocation": -40.458278709386,
      "SliceThickness": 2.0,
      "SmallestImagePixelValue": 0,
      "SoftwareVersions": "syngo MR E11",
      "SpacingBetweenSlices": 1.9999999750047,
      "SpecificCharacterSet": "ISO_IR 100",
      "StudyID": "1",
      "StudyTime": "155124.723000",
      "TransmitCoilName": "Body",
      "VariableFlipAngleFlag": "N",
      "WindowCenterWidthExplanation": "Algo1",
      "dBdt": 0.0},
    "slices": {}
  },
  "time": {
    "samples": {
      "AcquisitionNumber": [1, 2, 3, 4, 5, 6, 7, 8, 9, 10, 11, 12, 13, 14, 15, 16, 17, 18, 19, 20, 21, 22, 23, 24, 25, 26, 27, 28, 29, 30, 31, 32, 33, 34, 35, 36, 37, 38, 39, 40, 41, 42, 43, 44, 45, 46, 47, 48, 49, 50, 51, 52, 53, 54, 55, 56, 57, 58, 59, 60, 61, 62, 63, 64, 65, 66, 67, 68, 69, 70, 71, 72, 73, 74, 75, 76, 77, 78, 79, 80, 81, 82, 83, 84, 85, 86, 87, 88, 89, 90, 91, 92, 93, 94, 95, 96, 97, 98, 99, 100, 101, 102, 103, 104, 105, 106, 107, 108, 109, 110, 111, 112, 113, 114, 115, 116, 117, 118, 119, 120, 121, 122, 123, 124, 125, 126, 127, 128, 129, 130, 131, 132, 133, 134, 135, 136, 137, 138, 139, 140, 141, 142, 143, 144, 145, 146, 147, 148, 149, 150, 151, 152, 153, 154, 155, 156, 157, 158, 159, 160, 161, 162, 163, 164, 165, 166, 167, 168, 169, 170, 171, 172, 173, 174, 175, 176, 177, 178, 179, 180, 181, 182, 183, 184, 185, 186, 187, 188, 189, 190, 191, 192],
      "AcquisitionTime": ["163618.457500", "163619.457500", "163620.457500", "163621.457500", "163622.457500", "163623.457500", "163624.457500", "163625.457500", "163626.457500", "163627.457500", "163628.457500", "163629.457500", "163630.457500", "163631.457500", "163632.457500", "163633.457500", "163634.457500", "163635.457500", "163636.457500", "163637.457500", "163638.457500", "163639.457500", "163640.457500", "163641.457500", "163642.457500", "163643.457500", "163644.457500", "163645.457500", "163646.457500", "163647.457500", "163648.457500", "163649.457500", "163650.457500", "163651.457500", "163652.457500", "163653.457500", "163654.457500", "163655.457500", "163656.457500", "163657.457500", "163658.457500", "163659.457500", "163700.457500", "163701.457500", "163702.457500", "163703.457500", "163704.457500", "163705.457500", "163706.457500", "163707.457500", "163708.457500", "163709.457500", "163710.457500", "163711.457500", "163712.457500", "163713.457500", "163714.457500", "163715.457500", "163716.457500", "163717.457500", "163718.457500", "163719.457500", "163720.457500", "163721.457500", "163722.457500", "163723.457500", "163724.457500", "163725.457500", "163726.457500", "163727.457500", "163728.457500", "163729.457500", "163730.457500", "163731.457500", "163732.457500", "163733.457500", "163734.457500", "163735.457500", "163736.457500", "163737.457500", "163738.457500", "163739.457500", "163740.457500", "163741.457500", "163742.457500", "163743.457500", "163744.457500", "163745.457500", "163746.457500", "163747.457500", "163748.457500", "163749.457500", "163750.457500", "163751.457500", "163752.457500", "163753.457500", "163754.457500", "163755.457500", "163756.457500", "163757.457500", "163758.457500", "163759.457500", "163800.457500", "163801.457500", "163802.457500", "163803.457500", "163804.457500", "163805.457500", "163806.457500", "163807.457500", "163808.457500", "163809.457500", "163810.457500", "163811.457500", "163812.457500", "163813.457500", "163814.457500", "163815.457500", "163816.457500", "163817.457500", "163818.457500", "163819.457500", "163820.457500", "163821.457500", "163822.457500", "163823.457500", "163824.457500", "163825.457500", "163826.457500", "163827.457500", "163828.457500", "163829.457500", "163830.457500", "163831.457500", "163832.457500", "163833.457500", "163834.457500", "163835.457500", "163836.457500", "163837.457500", "163838.457500", "163839.457500", "163840.457500", "163841.457500", "163842.457500", "163843.457500", "163844.457500", "163845.457500", "163846.457500", "163847.457500", "163848.457500", "163849.457500", "163850.457500", "163851.457500", "163852.457500", "163853.457500", "163854.457500", "163855.457500", "163856.457500", "163857.457500", "163858.457500", "163859.457500", "163900.457500", "163901.457500", "163902.457500", "163903.457500", "163904.457500", "163905.457500", "163906.457500", "163907.457500", "163908.457500", "163909.457500", "163910.457500", "163911.457500", "163912.457500", "163913.457500", "163914.457500", "163915.457500", "163916.457500", "163917.457500", "163918.457500", "163919.457500", "163920.457500", "163921.457500", "163922.457500", "163923.457500", "163924.457500", "163925.457500", "163926.457500", "163927.457500", "163928.457500", "163929.457500"],
      "ContentTime": ["163712.274000", "163712.285000", "163712.288000", "163712.291000", "163717.245000", "163717.257000", "163717.260000", "163717.263000", "163717.267000", "163717.272000", "163717.275000", "163722.245000", "163722.248000", "163722.251000", "163722.254000", "163722.257000", "163722.268000", "163722.271000", "163727.245000", "163727.248000", "163727.251000", "163727.254000", "163727.257000", "163727.260000", "163727.263000", "163732.245000", "163732.248000", "163732.251000", "163732.263000", "163732.267000", "163732.269000", "163732.272000", "163732.275000", "163737.245000", "163737.248000", "163737.251000", "163737.254000", "163737.257000", "163737.260000", "163737.263000", "163742.245000", "163742.255000", "163742.258000", "163742.265000", "163742.268000", "163742.271000", "163742.274000", "163747.244000", "163747.247000", "163747.250000", "163747.253000", "163747.267000", "163747.270000", "163747.273000", "163752.245000", "163752.248000", "163752.251000", "163752.254000", "163752.257000", "163752.260000", "163752.263000", "163757.245000", "163757.248000", "163757.251000", "163757.254000", "163757.257000", "163757.260000", "163757.263000", "163802.245000", "163802.248000", "163802.251000", "163802.254000", "163802.257000", "163802.260000", "163802.263000", "163807.246000", "163807.250000", "163807.253000", "163807.256000", "163807.259000", "163807.262000", "163807.265000", "163812.245000", "163812.248000", "163812.251000", "163812.254000", "163812.257000", "163812.260000", "163812.263000", "163817.245000", "163817.248000", "163817.251000", "163817.254000", "163817.257000", "163817.260000", "163817.263000", "163822.245000", "163822.249000", "163822.252000", "163822.255000", "163822.258000", "163822.261000", "163822.264000", "163827.245000", "163827.248000", "163827.251000", "163827.254000", "163827.257000", "163827.260000", "163827.264000", "163827.267000", "163832.245000", "163832.248000", "163832.251000", "163832.254000", "163832.257000", "163832.260000", "163832.263000", "163837.245000", "163837.248000", "163837.263000", "163837.266000", "163837.269000", "163837.272000", "163837.275000", "163842.245000", "163842.248000", "163842.251000", "163842.254000", "163842.257000", "163842.260000", "163842.263000", "163847.245000", "163847.248000", "163847.251000", "163847.254000", "163847.257000", "163847.260000", "163847.263000", "163852.245000", "163852.248000", "163852.251000", "163852.254000", "163852.257000", "163852.260000", "163852.263000", "163857.244000", "163857.247000", "163857.250000", "163857.253000", "163857.256000", "163857.259000", "163857.262000", "163902.245000", "163902.248000", "163902.251000", "163902.254000", "163902.257000", "163902.260000", "163902.263000", "163907.245000", "163907.248000", "163907.251000", "163907.254000", "163907.257000", "163907.260000", "163907.263000", "163912.245000", "163912.248000", "163912.251000", "163912.254000", "163912.257000", "163917.245000", "163917.248000", "163917.251000", "163917.254000", "163917.257000", "163922.245000", "163922.248000", "163922.251000", "163922.254000", "163922.257000", "163927.245000", "163927.248000", "163927.251000", "163927.254000", "163927.257000", "163931.519000", "163931.522000", "163931.525000", "163931.528000", "163931.531000"],
      "InstanceCreationTime": ["163712.274000", "163712.285000", "163712.288000", "163712.291000", "163717.245000", "163717.257000", "163717.260000", "163717.263000", "163717.267000", "163717.272000", "163717.275000", "163722.245000", "163722.248000", "163722.251000", "163722.254000", "163722.257000", "163722.268000", "163722.271000", "163727.245000", "163727.248000", "163727.251000", "163727.254000", "163727.257000", "163727.260000", "163727.263000", "163732.245000", "163732.248000", "163732.251000", "163732.263000", "163732.267000", "163732.269000", "163732.272000", "163732.275000", "163737.245000", "163737.248000", "163737.251000", "163737.254000", "163737.257000", "163737.260000", "163737.263000", "163742.245000", "163742.255000", "163742.258000", "163742.265000", "163742.268000", "163742.271000", "163742.274000", "163747.244000", "163747.247000", "163747.250000", "163747.253000", "163747.267000", "163747.270000", "163747.273000", "163752.245000", "163752.248000", "163752.251000", "163752.254000", "163752.257000", "163752.260000", "163752.263000", "163757.245000", "163757.248000", "163757.251000", "163757.254000", "163757.257000", "163757.260000", "163757.263000", "163802.245000", "163802.248000", "163802.251000", "163802.254000", "163802.257000", "163802.260000", "163802.263000", "163807.246000", "163807.250000", "163807.253000", "163807.256000", "163807.259000", "163807.262000", "163807.265000", "163812.245000", "163812.248000", "163812.251000", "163812.254000", "163812.257000", "163812.260000", "163812.263000", "163817.245000", "163817.248000", "163817.251000", "163817.254000", "163817.257000", "163817.260000", "163817.263000", "163822.245000", "163822.249000", "163822.252000", "163822.255000", "163822.258000", "163822.261000", "163822.264000", "163827.245000", "163827.248000", "163827.251000", "163827.254000", "163827.257000", "163827.260000", "163827.264000", "163827.267000", "163832.245000", "163832.248000", "163832.251000", "163832.254000", "163832.257000", "163832.260000", "163832.263000", "163837.245000", "163837.248000", "163837.263000", "163837.266000", "163837.269000", "163837.272000", "163837.275000", "163842.245000", "163842.248000", "163842.251000", "163842.254000", "163842.257000", "163842.260000", "163842.263000", "163847.245000", "163847.248000", "163847.251000", "163847.254000", "163847.257000", "163847.260000", "163847.263000", "163852.245000", "163852.248000", "163852.251000", "163852.254000", "163852.257000", "163852.260000", "163852.263000", "163857.244000", "163857.247000", "163857.250000", "163857.253000", "163857.256000", "163857.259000", "163857.262000", "163902.245000", "163902.248000", "163902.251000", "163902.254000", "163902.257000", "163902.260000", "163902.263000", "163907.245000", "163907.248000", "163907.251000", "163907.254000", "163907.257000", "163907.260000", "163907.263000", "163912.245000", "163912.248000", "163912.251000", "163912.254000", "163912.257000", "163917.245000", "163917.248000", "163917.251000", "163917.254000", "163917.257000", "163922.245000", "163922.248000", "163922.251000", "163922.254000", "163922.257000", "163927.245000", "163927.248000", "163927.251000", "163927.254000", "163927.257000", "163931.519000", "163931.522000", "163931.525000", "163931.528000", "163931.531000"],
      "InstanceNumber": [1, 2, 3, 4, 5, 6, 7, 8, 9, 10, 11, 12, 13, 14, 15, 16, 17, 18, 19, 20, 21, 22, 23, 24, 25, 26, 27, 28, 29, 30, 31, 32, 33, 34, 35, 36, 37, 38, 39, 40, 41, 42, 43, 44, 45, 46, 47, 48, 49, 50, 51, 52, 53, 54, 55, 56, 57, 58, 59, 60, 61, 62, 63, 64, 65, 66, 67, 68, 69, 70, 71, 72, 73, 74, 75, 76, 77, 78, 79, 80, 81, 82, 83, 84, 85, 86, 87, 88, 89, 90, 91, 92, 93, 94, 95, 96, 97, 98, 99, 100, 101, 102, 103, 104, 105, 106, 107, 108, 109, 110, 111, 112, 113, 114, 115, 116, 117, 118, 119, 120, 121, 122, 123, 124, 125, 126, 127, 128, 129, 130, 131, 132, 133, 134, 135, 136, 137, 138, 139, 140, 141, 142, 143, 144, 145, 146, 147, 148, 149, 150, 151, 152, 153, 154, 155, 156, 157, 158, 159, 160, 161, 162, 163, 164, 165, 166, 167, 168, 169, 170, 171, 172, 173, 174, 175, 176, 177, 178, 179, 180, 181, 182, 183, 184, 185, 186, 187, 188, 189, 190, 191, 192],
      "LargestImagePixelValue": [41978, 39809, 39907, 40166, 39765, 39248, 38911, 38784, 39337, 39637, 39393, 39159, 39190, 39134, 38942, 38522, 39394, 39624, 39619, 39738, 39280, 40075, 39930, 39568, 39390, 39225, 39021, 39359, 39585, 39200, 39242, 38929, 39200, 39358, 39926, 40079, 40050, 40376, 40327, 40520, 39732, 39794, 39650, 39673, 39350, 38777, 38305, 38684, 39132, 39546, 38954, 39926, 39796, 39069, 39241, 39478, 39729, 40423, 40073, 39790, 40225, 40594, 40115, 40450, 40448, 40269, 39642, 39943, 40553, 40063, 40259, 40363, 40672, 40244, 40079, 40117, 39895, 39867, 40537, 40581, 40284, 40370, 40313, 39916, 40305, 40077, 39981, 40230, 40190, 40111, 40121, 39924, 40032, 39674, 39623, 39904, 39541, 39288, 39702, 39233, 38461, 39743, 39663, 39238, 39358, 39039, 39191, 38919, 38634, 38473, 39560, 37604, 37453, 39098, 39146, 39425, 38880, 39422, 38626, 38634, 38851, 40240, 40923, 39910, 40064, 39701, 39761, 39972, 40102, 39077, 39920, 40624, 40245, 40103, 40423, 40212, 39545, 39736, 39529, 40101, 39987, 40293, 39995, 39406, 39441, 39314, 39376, 39180, 40346, 39794, 40319, 39298, 38029, 40064, 39763, 38881, 39652, 39362, 39240, 38846, 39096, 39072, 38822, 40019, 40236, 39986, 39856, 39459, 39484, 39098, 38153, 39860, 39982, 38397, 39153, 39574, 39194, 40319, 40144, 40449, 40273, 40255, 39577, 39638, 39083, 39867, 40320, 39988, 40572, 40493, 40351, 39812],
      "WindowCenter": [10209.0, 10155.0, 10155.0, 10150.0, 10145.0, 10137.0, 10135.0, 10123.0, 10135.0, 10134.0, 10134.0, 10135.0, 10139.0, 10147.0, 10155.0, 10153.0, 10169.0, 10170.0, 10171.0, 10168.0, 10156.0, 10176.0, 10183.0, 10183.0, 10179.0, 10188.0, 10175.0, 10180.0, 10195.0, 10187.0, 10194.0, 10189.0, 10200.0, 10203.0, 10208.0, 10211.0, 10216.0, 10215.0, 10221.0, 10222.0, 10216.0, 10217.0, 10224.0, 10217.0, 10228.0, 10232.0, 10230.0, 10251.0, 10225.0, 10215.0, 10198.0, 10178.0, 10154.0, 10132.0, 10129.0, 10108.0, 10105.0, 10110.0, 10113.0, 10105.0, 10101.0, 10104.0, 10109.0, 10115.0, 10110.0, 10121.0, 10127.0, 10137.0, 10135.0, 10133.0, 10130.0, 10122.0, 10137.0, 10128.0, 10123.0, 10124.0, 10131.0, 10132.0, 10139.0, 10150.0, 10151.0, 10163.0, 10164.0, 10157.0, 10157.0, 10149.0, 10149.0, 10159.0, 10170.0, 10167.0, 10176.0, 10176.0, 10176.0, 10176.0, 10174.0, 10167.0, 10169.0, 10173.0, 10177.0, 10175.0, 10168.0, 10180.0, 10177.0, 10163.0, 10158.0, 10167.0, 10157.0, 10157.0, 10153.0, 10151.0, 10168.0, 10161.0, 10154.0, 10181.0, 10187.0, 10184.0, 10175.0, 10179.0, 10168.0, 10161.0, 10145.0, 10140.0, 10124.0, 10115.0, 10095.0, 10094.0, 10104.0, 10113.0, 10119.0, 10110.0, 10124.0, 10128.0, 10121.0, 10121.0, 10126.0, 10137.0, 10144.0, 10150.0, 10161.0, 10173.0, 10165.0, 10169.0, 10161.0, 10154.0, 10166.0, 10165.0, 10166.0, 10165.0, 10184.0, 10196.0, 10203.0, 10199.0, 10197.0, 10195.0, 10200.0, 10183.0, 10190.0, 10186.0, 10169.0, 10171.0, 10164.0, 10165.0, 10167.0, 10182.0, 10182.0, 10188.0, 10200.0, 10189.0, 10198.0, 10208.0, 10217.0, 10211.0, 10204.0, 10164.0, 10173.0, 10138.0, 10132.0, 10139.0, 10133.0, 10125.0, 10101.0, 10080.0, 10057.0, 10039.0, 10016.0, 10031.0, 10036.0, 10046.0, 10052.0, 10061.0, 10078.0, 10084.0],
      "WindowWidth": [21844.0, 21708.0, 21689.0, 21671.0, 21656.0, 21639.0, 21634.0, 21609.0, 21629.0, 21628.0, 21628.0, 21633.0, 21642.0, 21661.0, 21679.0, 21680.0, 21707.0, 21710.0, 21712.0, 21704.0, 21682.0, 21722.0, 21736.0, 21737.0, 21733.0, 21753.0, 21727.0, 21736.0, 21765.0, 21750.0, 21765.0, 21755.0, 21777.0, 21790.0, 21795.0, 21802.0, 21814.0, 21810.0, 21821.0, 21825.0, 21814.0, 21817.0, 21833.0, 21817.0, 21844.0, 21859.0, 21855.0, 21904.0, 21841.0, 21810.0, 21772.0, 21720.0, 21669.0, 21620.0, 21611.0, 21565.0, 21557.0, 21564.0, 21572.0, 21560.0, 21546.0, 21548.0, 21562.0, 21577.0, 21569.0, 21594.0, 21612.0, 21630.0, 21623.0, 21620.0, 21613.0, 21593.0, 21625.0, 21607.0, 21600.0, 21600.0, 21619.0, 21620.0, 21633.0, 21655.0, 21660.0, 21689.0, 21689.0, 21676.0, 21674.0, 21662.0, 21659.0, 21684.0, 21706.0, 21703.0, 21721.0, 21721.0, 21719.0, 21718.0, 21715.0, 21700.0, 21704.0, 21718.0, 21723.0, 21725.0, 21712.0, 21732.0, 21727.0, 21698.0, 21687.0, 21706.0, 21687.0, 21685.0, 21682.0, 21677.0, 21708.0, 21706.0, 21692.0, 21742.0, 21754.0, 21744.0, 21727.0, 21733.0, 21711.0, 21694.0, 21656.0, 21637.0, 21596.0, 21582.0, 21538.0, 21535.0, 21558.0, 21580.0, 21589.0, 21574.0, 21600.0, 21606.0, 21594.0, 21593.0, 21603.0, 21629.0, 21651.0, 21663.0, 21686.0, 21709.0, 21697.0, 21701.0, 21684.0, 21671.0, 21703.0, 21699.0, 21700.0, 21699.0, 21736.0, 21764.0, 21781.0, 21776.0, 21780.0, 21763.0, 21777.0, 21742.0, 21753.0, 21747.0, 21702.0, 21709.0, 21699.0, 21702.0, 21704.0, 21734.0, 21736.0, 21749.0, 21777.0, 21758.0, 21778.0, 21801.0, 21825.0, 21802.0, 21783.0, 21699.0, 21720.0, 21632.0, 21621.0, 21628.0, 21618.0, 21597.0, 21547.0, 21500.0, 21452.0, 21413.0, 21367.0, 21391.0, 21401.0, 21423.0, 21436.0, 21453.0, 21494.0, 21512.0]
    },
    "slices": {}
  },
  "NumberOfVolumes": 192
}