{
  "AcquisitionMatrixPE": 104,
  "AcquisitionNumber": 1,
  "AcquisitionTime": "16:18:10.682500",
  "BandwidthPerPixelPhaseEncode": 16.578,
  "BaseResolution": 104,
  "BodyPartExamined": "BRAIN",
  "ConsistencyInfo": "N4_VE11C_LATEST_20160120",
  "ConversionSoftware": "dcm2niix",
  "ConversionSoftwareVersion": "v1.0.20190902",
  "DerivedVendorReportedEchoSpacing": 0.000580009,
  "DeviceSerialNumber": "166018",
  "DwellTime": 2.1e-06,
  "EchoTime": 0.037,
  "EchoTrainLength": 104,
  "EffectiveEchoSpacing": 0.000580009,
  "FlipAngle": 68,
  "ImageComments": "Unaliased_MB6_PE3_LB",
  "ImageOrientationPatientDICOM": [0.996859, 0.0340115, -0.0715212, -0.0503243, 0.969357, -0.240446],
  "ImageType": [
    "ORIGINAL",
    "PRIMARY",
    "M",
    "MB",
    "ND",
    "MOSAIC"
],
  "ImagingFrequency": 123.191,
  "InPlanePhaseEncodingDirectionDICOM": "COL",
  "InstitutionAddress": "Washington_Place_6_NYC_NYC_US_10003",
  "InstitutionName": "NYU_-_CBI",
  "InstitutionalDepartmentName": "Department",
  "MRAcquisitionType": "2D",
  "MagneticFieldStrength": 3,
  "Manufacturer": "Siemens",
  "ManufacturersModelName": "Prisma",
  "Modality": "MR",
  "MultibandAccelerationFactor": 6,
  "PartialFourier": 1,
  "PatientPosition": "HFS",
  "PercentPhaseFOV": 100,
  "PhaseEncodingDirection": "j",
  "PhaseEncodingSteps": 104,
  "PhaseResolution": 1,
  "PixelBandwidth": 2290,
  "ProcedureStepDescription": "Investigators_Winawer",
  "ProtocolName": "cmrr_mbepi_task_prf",
  "PulseSequenceDetails": "%CustomerSeq%_cmrr_mbep2d_bold",
  "ReceiveCoilActiveElements": "HC1-7",
  "ReceiveCoilName": "HeadNeck_64",
  "ReconMatrixPE": 104,
  "RepetitionTime": 1,
  "SAR": 0.0858577,
  "ScanOptions": "FS",
  "ScanningSequence": "EP",
  "SequenceName": "epfid2d1_104",
  "SequenceVariant": "SK_SS",
  "SeriesDescription": "cmrr_mbepi_task_prf",
  "SeriesNumber": 10,
  "ShimSetting": [241, -12588, -8480, 259, -54, 56, -85, -21],
  "SliceThickness": 2,
  "SliceTiming": [0, 0.535, 0.09, 0.625, 0.18, 0.715, 0.2675, 0.8025, 0.3575, 0.8925, 0.4475, 0, 0.535, 0.09, 0.625, 0.18, 0.715, 0.2675, 0.8025, 0.3575, 0.8925, 0.4475, 0, 0.535, 0.09, 0.625, 0.18, 0.715, 0.2675, 0.8025, 0.3575, 0.8925, 0.4475, 0, 0.535, 0.09, 0.625, 0.18, 0.715, 0.2675, 0.8025, 0.3575, 0.8925, 0.4475, 0, 0.535, 0.09, 0.625, 0.18, 0.715, 0.2675, 0.8025, 0.3575, 0.8925, 0.4475, 0, 0.535, 0.09, 0.625, 0.18, 0.715, 0.2675, 0.8025, 0.3575, 0.8925, 0.4475],
  "SoftwareVersions": "syngo_MR_E11",
  "SpacingBetweenSlices": 2,
  "StationName": "AWP166018",
  "TaskName": "prf",
  "TotalReadoutTime": 0.0597409,
  "TxRefAmp": 246.358,
  "WipMemBlock": "72f217c5-3f59-4598-84bc-42005420eec2||Sequence: R016 ve11c/master r/8780670; Nov 27 2017 15:05:12 by eja",
  "dcmmeta_affine": [
    [-1.9937180280685425, -0.10064857453107834, -0.12230326235294342, 113.70326232910156],
    [-0.0680229589343071, 1.9387143850326538, -0.4865793287754059, -69.42378997802734],
    [-0.14304231107234955, 0.48089131712913513, 1.936048150062561, -52.05989456176758],
    [0.0, 0.0, 0.0, 1.0]
],
  "dcmmeta_reorient_transform": [
    [0.0, -1.0, 0.0, 103.0],
    [1.0, 0.0, 0.0, 0.0],
    [0.0, 0.0, 1.0, 0.0],
    [0.0, 0.0, 0.0, 1.0]
],
  "dcmmeta_shape": [104, 104, 66, 192],
  "dcmmeta_slice_dim": 2,
  "dcmmeta_version": 0.6,
  "global": {
    "const": {
      "AccessionNumber": "jk46q1x8",
      "AcquisitionMatrix": [104, 0, 0, 104],
      "AngioFlag": "N",
      "BitsAllocated": 16,
      "BitsStored": 16,
      "BodyPartExamined": "BRAIN",
      "Columns": 936,
      "EchoNumbers": 1,
      "EchoTime": 37.0,
      "EchoTrainLength": 104,
      "FlipAngle": 68.0,
      "HighBit": 15,
      "ImageOrientationPatient": [0.99685903916049, 0.03401147973648, -0.0715211527464, -0.0503242891267, 0.96935718613184, -0.2404456521097],
      "ImagePositionPatient": [-890.85336994186, -965.06651767914, 257.02829216873],
      "ImageType": [
        "ORIGINAL",
        "PRIMARY",
        "M",
        "MB",
        "ND",
        "MOSAIC"
],
      "ImagedNucleus": "1H",
      "ImagingFrequency": 123.191043,
      "InPlanePhaseEncodingDirection": "COL",
      "MRAcquisitionType": "2D",
      "MagneticFieldStrength": 3.0,
      "Manufacturer": "SIEMENS",
      "ManufacturerModelName": "Prisma",
      "Modality": "MR",
      "NumberOfAverages": 1.0,
      "NumberOfPhaseEncodingSteps": 104,
      "PercentPhaseFieldOfView": 100.0,
      "PercentSampling": 100.0,
      "PerformedProcedureStepStartTime": "155124.855000",
      "PhotometricInterpretation": "MONOCHROME2",
      "PixelBandwidth": 2290.0,
      "PixelRepresentation": 0,
      "PixelSpacing": [2.0, 2.0],
      "ProtocolName": "cmrr_mbepi_task_prf",
      "RepetitionTime": 1000.0,
      "Rows": 936,
      "SAR": 0.08585768075614,
      "SamplesPerPixel": 1,
      "ScanOptions": "FS",
      "ScanningSequence": "EP",
      "SequenceName": "epfid2d1_104",
      "SequenceVariant": [
        "SK",
        "SS"
],
      "SeriesDescription": "cmrr_mbepi_task_prf",
      "SeriesNumber": 10,
      "SeriesTime": "161902.197000",
      "SliceLocation": -40.458278709386,
      "SliceThickness": 2.0,
      "SmallestImagePixelValue": 0,
      "SoftwareVersions": "syngo MR E11",
      "SpacingBetweenSlices": 1.9999999750047,
      "SpecificCharacterSet": "ISO_IR 100",
      "StudyID": "1",
      "StudyTime": "155124.723000",
      "TransmitCoilName": "Body",
      "VariableFlipAngleFlag": "N",
      "WindowCenterWidthExplanation": "Algo1",
      "dBdt": 0.0},
    "slices": {}
  },
  "time": {
    "samples": {
      "AcquisitionNumber": [1, 2, 3, 4, 5, 6, 7, 8, 9, 10, 11, 12, 13, 14, 15, 16, 17, 18, 19, 20, 21, 22, 23, 24, 25, 26, 27, 28, 29, 30, 31, 32, 33, 34, 35, 36, 37, 38, 39, 40, 41, 42, 43, 44, 45, 46, 47, 48, 49, 50, 51, 52, 53, 54, 55, 56, 57, 58, 59, 60, 61, 62, 63, 64, 65, 66, 67, 68, 69, 70, 71, 72, 73, 74, 75, 76, 77, 78, 79, 80, 81, 82, 83, 84, 85, 86, 87, 88, 89, 90, 91, 92, 93, 94, 95, 96, 97, 98, 99, 100, 101, 102, 103, 104, 105, 106, 107, 108, 109, 110, 111, 112, 113, 114, 115, 116, 117, 118, 119, 120, 121, 122, 123, 124, 125, 126, 127, 128, 129, 130, 131, 132, 133, 134, 135, 136, 137, 138, 139, 140, 141, 142, 143, 144, 145, 146, 147, 148, 149, 150, 151, 152, 153, 154, 155, 156, 157, 158, 159, 160, 161, 162, 163, 164, 165, 166, 167, 168, 169, 170, 171, 172, 173, 174, 175, 176, 177, 178, 179, 180, 181, 182, 183, 184, 185, 186, 187, 188, 189, 190, 191, 192],
      "AcquisitionTime": ["161810.682500", "161811.682500", "161812.682500", "161813.682500", "161814.682500", "161815.682500", "161816.682500", "161817.682500", "161818.682500", "161819.682500", "161820.682500", "161821.682500", "161822.682500", "161823.682500", "161824.682500", "161825.682500", "161826.682500", "161827.682500", "161828.682500", "161829.682500", "161830.682500", "161831.682500", "161832.682500", "161833.682500", "161834.682500", "161835.682500", "161836.682500", "161837.682500", "161838.682500", "161839.682500", "161840.682500", "161841.682500", "161842.682500", "161843.682500", "161844.682500", "161845.682500", "161846.682500", "161847.682500", "161848.682500", "161849.682500", "161850.682500", "161851.682500", "161852.682500", "161853.682500", "161854.682500", "161855.682500", "161856.682500", "161857.682500", "161858.682500", "161859.682500", "161900.682500", "161901.682500", "161902.682500", "161903.682500", "161904.682500", "161905.682500", "161906.682500", "161907.682500", "161908.682500", "161909.682500", "161910.682500", "161911.682500", "161912.682500", "161913.682500", "161914.682500", "161915.682500", "161916.682500", "161917.682500", "161918.682500", "161919.682500", "161920.682500", "161921.682500", "161922.682500", "161923.682500", "161924.682500", "161925.682500", "161926.682500", "161927.682500", "161928.682500", "161929.682500", "161930.682500", "161931.682500", "161932.682500", "161933.682500", "161934.682500", "161935.682500", "161936.682500", "161937.682500", "161938.682500", "161939.682500", "161940.682500", "161941.682500", "161942.682500", "161943.682500", "161944.682500", "161945.682500", "161946.682500", "161947.682500", "161948.682500", "161949.682500", "161950.682500", "161951.682500", "161952.682500", "161953.682500", "161954.682500", "161955.682500", "161956.682500", "161957.682500", "161958.682500", "161959.682500", "162000.682500", "162001.682500", "162002.682500", "162003.682500", "162004.682500", "162005.682500", "162006.682500", "162007.682500", "162008.682500", "162009.682500", "162010.682500", "162011.682500", "162012.682500", "162013.682500", "162014.682500", "162015.682500", "162016.682500", "162017.682500", "162018.682500", "162019.682500", "162020.682500", "162021.682500", "162022.682500", "162023.682500", "162024.682500", "162025.682500", "162026.682500", "162027.682500", "162028.682500", "162029.682500", "162030.682500", "162031.682500", "162032.682500", "162033.682500", "162034.682500", "162035.682500", "162036.682500", "162037.682500", "162038.682500", "162039.682500", "162040.682500", "162041.682500", "162042.682500", "162043.682500", "162044.682500", "162045.682500", "162046.682500", "162047.682500", "162048.682500", "162049.682500", "162050.682500", "162051.682500", "162052.682500", "162053.682500", "162054.682500", "162055.682500", "162056.682500", "162057.682500", "162058.682500", "162059.682500", "162100.682500", "162101.682500", "162102.682500", "162103.682500", "162104.682500", "162105.682500", "162106.682500", "162107.682500", "162108.682500", "162109.682500", "162110.682500", "162111.682500", "162112.682500", "162113.682500", "162114.682500", "162115.682500", "162116.682500", "162117.682500", "162118.682500", "162119.682500", "162120.682500", "162121.682500"],
      "ContentTime": ["161902.200000", "161902.204000", "161902.207000", "161907.168000", "161907.171000", "161907.174000", "161907.177000", "161907.180000", "161907.183000", "161907.186000", "161912.169000", "161912.184000", "161912.187000", "161912.190000", "161912.193000", "161912.196000", "161912.202000", "161917.169000", "161917.172000", "161917.175000", "161917.178000", "161917.181000", "161917.184000", "161917.187000", "161922.169000", "161922.178000", "161922.181000", "161922.184000", "161922.187000", "161922.190000", "161922.193000", "161927.168000", "161927.171000", "161927.174000", "161927.177000", "161927.180000", "161927.183000", "161927.186000", "161932.169000", "161932.172000", "161932.179000", "161932.182000", "161932.185000", "161932.188000", "161932.191000", "161937.169000", "161937.172000", "161937.175000", "161937.178000", "161937.181000", "161937.184000", "161937.187000", "161942.168000", "161942.171000", "161942.174000", "161942.177000", "161942.180000", "161942.183000", "161942.186000", "161947.169000", "161947.172000", "161947.175000", "161947.178000", "161947.181000", "161947.184000", "161947.187000", "161952.169000", "161952.172000", "161952.175000", "161952.178000", "161952.181000", "161952.185000", "161952.187000", "161957.169000", "161957.172000", "161957.175000", "161957.178000", "161957.181000", "161957.184000", "161957.187000", "162002.168000", "162002.171000", "162002.174000", "162002.177000", "162002.180000", "162002.183000", "162002.186000", "162002.189000", "162007.169000", "162007.178000", "162007.181000", "162007.184000", "162007.187000", "162007.190000", "162007.193000", "162012.169000", "162012.172000", "162012.175000", "162012.178000", "162012.181000", "162012.184000", "162012.187000", "162017.168000", "162017.171000", "162017.174000", "162017.177000", "162017.180000", "162017.183000", "162017.186000", "162022.169000", "162022.182000", "162022.186000", "162022.189000", "162022.191000", "162022.194000", "162022.197000", "162027.169000", "162027.172000", "162027.175000", "162027.178000", "162027.181000", "162027.184000", "162027.187000", "162032.169000", "162032.172000", "162032.175000", "162032.178000", "162032.181000", "162032.184000", "162032.187000", "162037.168000", "162037.171000", "162037.174000", "162037.177000", "162037.180000", "162037.183000", "162037.186000", "162042.169000", "162042.172000", "162042.175000", "162042.178000", "162042.181000", "162042.184000", "162042.187000", "162047.169000", "162047.172000", "162047.175000", "162047.178000", "162047.181000", "162047.184000", "162047.187000", "162052.168000", "162052.171000", "162052.174000", "162052.177000", "162052.180000", "162052.183000", "162052.186000", "162057.169000", "162057.172000", "162057.175000", "162057.178000", "162057.181000", "162057.184000", "162057.187000", "162102.169000", "162102.172000", "162102.175000", "162102.178000", "162102.181000", "162107.169000", "162107.172000", "162107.175000", "162107.178000", "162107.181000", "162112.168000", "162112.171000", "162112.174000", "162112.177000", "162112.180000", "162117.169000", "162117.172000", "162117.175000", "162117.178000", "162117.181000", "162122.169000", "162122.172000", "162122.175000", "162122.178000", "162122.181000", "162123.635000", "162123.639000"],
      "InstanceCreationTime": ["161902.200000", "161902.204000", "161902.207000", "161907.168000", "161907.171000", "161907.174000", "161907.177000", "161907.180000", "161907.183000", "161907.186000", "161912.169000", "161912.184000", "161912.187000", "161912.190000", "161912.193000", "161912.196000", "161912.202000", "161917.169000", "161917.172000", "161917.175000", "161917.178000", "161917.181000", "161917.184000", "161917.187000", "161922.169000", "161922.178000", "161922.181000", "161922.184000", "161922.187000", "161922.190000", "161922.193000", "161927.168000", "161927.171000", "161927.174000", "161927.177000", "161927.180000", "161927.183000", "161927.186000", "161932.169000", "161932.172000", "161932.179000", "161932.182000", "161932.185000", "161932.188000", "161932.191000", "161937.169000", "161937.172000", "161937.175000", "161937.178000", "161937.181000", "161937.184000", "161937.187000", "161942.168000", "161942.171000", "161942.174000", "161942.177000", "161942.180000", "161942.183000", "161942.186000", "161947.169000", "161947.172000", "161947.175000", "161947.178000", "161947.181000", "161947.184000", "161947.187000", "161952.169000", "161952.172000", "161952.175000", "161952.178000", "161952.181000", "161952.185000", "161952.187000", "161957.169000", "161957.172000", "161957.175000", "161957.178000", "161957.181000", "161957.184000", "161957.187000", "162002.168000", "162002.171000", "162002.174000", "162002.177000", "162002.180000", "162002.183000", "162002.186000", "162002.189000", "162007.169000", "162007.178000", "162007.181000", "162007.184000", "162007.187000", "162007.190000", "162007.193000", "162012.169000", "162012.172000", "162012.175000", "162012.178000", "162012.181000", "162012.184000", "162012.187000", "162017.168000", "162017.171000", "162017.174000", "162017.177000", "162017.180000", "162017.183000", "162017.186000", "162022.169000", "162022.182000", "162022.186000", "162022.189000", "162022.191000", "162022.194000", "162022.197000", "162027.169000", "162027.172000", "162027.175000", "162027.178000", "162027.181000", "162027.184000", "162027.187000", "162032.169000", "162032.172000", "162032.175000", "162032.178000", "162032.181000", "162032.184000", "162032.187000", "162037.168000", "162037.171000", "162037.174000", "162037.177000", "162037.180000", "162037.183000", "162037.186000", "162042.169000", "162042.172000", "162042.175000", "162042.178000", "162042.181000", "162042.184000", "162042.187000", "162047.169000", "162047.172000", "162047.175000", "162047.178000", "162047.181000", "162047.184000", "162047.187000", "162052.168000", "162052.171000", "162052.174000", "162052.177000", "162052.180000", "162052.183000", "162052.186000", "162057.169000", "162057.172000", "162057.175000", "162057.178000", "162057.181000", "162057.184000", "162057.187000", "162102.169000", "162102.172000", "162102.175000", "162102.178000", "162102.181000", "162107.169000", "162107.172000", "162107.175000", "162107.178000", "162107.181000", "162112.168000", "162112.171000", "162112.174000", "162112.177000", "162112.180000", "162117.169000", "162117.172000", "162117.175000", "162117.178000", "162117.181000", "162122.169000", "162122.172000", "162122.175000", "162122.178000", "162122.181000", "162123.635000", "162123.639000"],
      "InstanceNumber": [1, 2, 3, 4, 5, 6, 7, 8, 9, 10, 11, 12, 13, 14, 15, 16, 17, 18, 19, 20, 21, 22, 23, 24, 25, 26, 27, 28, 29, 30, 31, 32, 33, 34, 35, 36, 37, 38, 39, 40, 41, 42, 43, 44, 45, 46, 47, 48, 49, 50, 51, 52, 53, 54, 55, 56, 57, 58, 59, 60, 61, 62, 63, 64, 65, 66, 67, 68, 69, 70, 71, 72, 73, 74, 75, 76, 77, 78, 79, 80, 81, 82, 83, 84, 85, 86, 87, 88, 89, 90, 91, 92, 93, 94, 95, 96, 97, 98, 99, 100, 101, 102, 103, 104, 105, 106, 107, 108, 109, 110, 111, 112, 113, 114, 115, 116, 117, 118, 119, 120, 121, 122, 123, 124, 125, 126, 127, 128, 129, 130, 131, 132, 133, 134, 135, 136, 137, 138, 139, 140, 141, 142, 143, 144, 145, 146, 147, 148, 149, 150, 151, 152, 153, 154, 155, 156, 157, 158, 159, 160, 161, 162, 163, 164, 165, 166, 167, 168, 169, 170, 171, 172, 173, 174, 175, 176, 177, 178, 179, 180, 181, 182, 183, 184, 185, 186, 187, 188, 189, 190, 191, 192],
      "LargestImagePixelValue": [39100, 37383, 40086, 38102, 37454, 37098, 37205, 37146, 37129, 37411, 36918, 36981, 37101, 36896, 37050, 37964, 37220, 37190, 36812, 37370, 37441, 36762, 36961, 37254, 37313, 37318, 37709, 37144, 37239, 37280, 37427, 37024, 36964, 37000, 36741, 36770, 37424, 36853, 37116, 37557, 36968, 36407, 36524, 36769, 36529, 36300, 37003, 37167, 36804, 36901, 37287, 36564, 36595, 36979, 37099, 37540, 36961, 37345, 36874, 36708, 36956, 36158, 36821, 37177, 37323, 37653, 36423, 37644, 37349, 37089, 36977, 36348, 37115, 36760, 37149, 36874, 36548, 36851, 37320, 36482, 36472, 36146, 36249, 36396, 35506, 35962, 36455, 36287, 36479, 36165, 36104, 36477, 36002, 36580, 36112, 36276, 36102, 36650, 36884, 36751, 36418, 37245, 36230, 38467, 38465, 36770, 35444, 35624, 36003, 36575, 36319, 35918, 37160, 36743, 36440, 36998, 36118, 36215, 37259, 36438, 36984, 36935, 37519, 36230, 36538, 37240, 36301, 36797, 37070, 37135, 36769, 36007, 37164, 36387, 35764, 36338, 37008, 36112, 36348, 36274, 36937, 36009, 36927, 36155, 36552, 36606, 36369, 37042, 36520, 36454, 36440, 36798, 36473, 36678, 36244, 36320, 36018, 36865, 36883, 36644, 36454, 36670, 36406, 35949, 36862, 37048, 36683, 36025, 36038, 36474, 36052, 35928, 36438, 37758, 35978, 36217, 36740, 36622, 35719, 35446, 36566, 36024, 35520, 36114, 36313, 35769, 36115, 36158, 36543, 36529, 35951, 36620],
      "WindowCenter": [10356.0, 10179.0, 10284.0, 10218.0, 10223.0, 10229.0, 10226.0, 10220.0, 10223.0, 10225.0, 10212.0, 10209.0, 10217.0, 10203.0, 10200.0, 10220.0, 10215.0, 10210.0, 10208.0, 10221.0, 10214.0, 10215.0, 10218.0, 10223.0, 10231.0, 10222.0, 10230.0, 10223.0, 10223.0, 10225.0, 10231.0, 10233.0, 10226.0, 10225.0, 10217.0, 10204.0, 10223.0, 10210.0, 10210.0, 10230.0, 10235.0, 10240.0, 10239.0, 10241.0, 10229.0, 10216.0, 10228.0, 10225.0, 10226.0, 10214.0, 10216.0, 10191.0, 10189.0, 10127.0, 10221.0, 10215.0, 10212.0, 10218.0, 10214.0, 10201.0, 10201.0, 10188.0, 10198.0, 10192.0, 10204.0, 10204.0, 10184.0, 10167.0, 10172.0, 10172.0, 10179.0, 10171.0, 10170.0, 10166.0, 10178.0, 10177.0, 10180.0, 10195.0, 10202.0, 10184.0, 10182.0, 10184.0, 10190.0, 10199.0, 10189.0, 10195.0, 10216.0, 10208.0, 10209.0, 10199.0, 10192.0, 10197.0, 10188.0, 10198.0, 10197.0, 10198.0, 10197.0, 10212.0, 10216.0, 10227.0, 10227.0, 10242.0, 10133.0, 10258.0, 10250.0, 10245.0, 10221.0, 10207.0, 10210.0, 10197.0, 10192.0, 10191.0, 10198.0, 10209.0, 10212.0, 10226.0, 10209.0, 10194.0, 10195.0, 10181.0, 10172.0, 10180.0, 10206.0, 10197.0, 10204.0, 10225.0, 10208.0, 10211.0, 10222.0, 10231.0, 10236.0, 10228.0, 10244.0, 10225.0, 10202.0, 10189.0, 10189.0, 10161.0, 10156.0, 10147.0, 10152.0, 10138.0, 10155.0, 10141.0, 10171.0, 10155.0, 10148.0, 10158.0, 10147.0, 10154.0, 10149.0, 10160.0, 10138.0, 10121.0, 10106.0, 10103.0, 10101.0, 10108.0, 10117.0, 10135.0, 10145.0, 10161.0, 10169.0, 10151.0, 10173.0, 10181.0, 10187.0, 10183.0, 10204.0, 10225.0, 10231.0, 10230.0, 10251.0, 10275.0, 10258.0, 10269.0, 10269.0, 10275.0, 10260.0, 10228.0, 10241.0, 10231.0, 10217.0, 10223.0, 10207.0, 10193.0, 10179.0, 10159.0, 10149.0, 10141.0, 10127.0, 10129.0],
      "WindowWidth": [22231.0, 21793.0, 22005.0, 21844.0, 21853.0, 21868.0, 21862.0, 21847.0, 21856.0, 21859.0, 21834.0, 21825.0, 21840.0, 21814.0, 21807.0, 21848.0, 21837.0, 21829.0, 21826.0, 21852.0, 21840.0, 21841.0, 21848.0, 21860.0, 21875.0, 21855.0, 21869.0, 21857.0, 21856.0, 21860.0, 21873.0, 21881.0, 21865.0, 21861.0, 21845.0, 21818.0, 21855.0, 21832.0, 21831.0, 21872.0, 21888.0, 21903.0, 21896.0, 21899.0, 21873.0, 21847.0, 21864.0, 21855.0, 21864.0, 21837.0, 21836.0, 21790.0, 21784.0, 21644.0, 21859.0, 21839.0, 21831.0, 21839.0, 21837.0, 21802.0, 21802.0, 21778.0, 21796.0, 21785.0, 21809.0, 21809.0, 21772.0, 21721.0, 21734.0, 21734.0, 21759.0, 21739.0, 21738.0, 21727.0, 21750.0, 21750.0, 21758.0, 21790.0, 21806.0, 21771.0, 21766.0, 21773.0, 21786.0, 21806.0, 21794.0, 21804.0, 21848.0, 21833.0, 21836.0, 21813.0, 21794.0, 21804.0, 21787.0, 21805.0, 21805.0, 21808.0, 21805.0, 21835.0, 21844.0, 21870.0, 21872.0, 21904.0, 21647.0, 21947.0, 21918.0, 21907.0, 21861.0, 21830.0, 21832.0, 21799.0, 21794.0, 21793.0, 21801.0, 21830.0, 21840.0, 21870.0, 21837.0, 21798.0, 21794.0, 21764.0, 21740.0, 21757.0, 21814.0, 21805.0, 21819.0, 21865.0, 21835.0, 21837.0, 21853.0, 21875.0, 21894.0, 21882.0, 21913.0, 21869.0, 21820.0, 21784.0, 21783.0, 21726.0, 21713.0, 21691.0, 21697.0, 21670.0, 21703.0, 21679.0, 21744.0, 21709.0, 21690.0, 21708.0, 21691.0, 21706.0, 21699.0, 21718.0, 21674.0, 21636.0, 21603.0, 21592.0, 21588.0, 21601.0, 21623.0, 21664.0, 21689.0, 21723.0, 21744.0, 21701.0, 21744.0, 21762.0, 21777.0, 21775.0, 21822.0, 21868.0, 21887.0, 21885.0, 21926.0, 21973.0, 21947.0, 21971.0, 21970.0, 21985.0, 21955.0, 21883.0, 21906.0, 21888.0, 21859.0, 21868.0, 21833.0, 21800.0, 21762.0, 21716.0, 21695.0, 21678.0, 21648.0, 21650.0]
    },
    "slices": {}
  },
  "NumberOfVolumes": 192
}