{
  "AcquisitionMatrixPE": 104,
  "AcquisitionNumber": 1,
  "AcquisitionTime": "16:30:32.030000",
  "BandwidthPerPixelPhaseEncode": 16.578,
  "BaseResolution": 104,
  "BodyPartExamined": "BRAIN",
  "ConsistencyInfo": "N4_VE11C_LATEST_20160120",
  "ConversionSoftware": "dcm2niix",
  "ConversionSoftwareVersion": "v1.0.20190902",
  "DerivedVendorReportedEchoSpacing": 0.000580009,
  "DeviceSerialNumber": "166018",
  "DwellTime": 2.1e-06,
  "EchoTime": 0.037,
  "EchoTrainLength": 104,
  "EffectiveEchoSpacing": 0.000580009,
  "FlipAngle": 68,
  "ImageComments": "Unaliased_MB6_PE3_LB",
  "ImageOrientationPatientDICOM": [0.996859, 0.0340115, -0.0715212, -0.0503243, 0.969357, -0.240446],
  "ImageType": [
    "ORIGINAL",
    "PRIMARY",
    "M",
    "MB",
    "ND",
    "MOSAIC"
],
  "ImagingFrequency": 123.191,
  "InPlanePhaseEncodingDirectionDICOM": "COL",
  "InstitutionAddress": "Washington_Place_6_NYC_NYC_US_10003",
  "InstitutionName": "NYU_-_CBI",
  "InstitutionalDepartmentName": "Department",
  "MRAcquisitionType": "2D",
  "MagneticFieldStrength": 3,
  "Manufacturer": "Siemens",
  "ManufacturersModelName": "Prisma",
  "Modality": "MR",
  "MultibandAccelerationFactor": 6,
  "PartialFourier": 1,
  "PatientPosition": "HFS",
  "PercentPhaseFOV": 100,
  "PhaseEncodingDirection": "j",
  "PhaseEncodingSteps": 104,
  "PhaseResolution": 1,
  "PixelBandwidth": 2290,
  "ProcedureStepDescription": "Investigators_Winawer",
  "ProtocolName": "cmrr_mbepi_task_prf",
  "PulseSequenceDetails": "%CustomerSeq%_cmrr_mbep2d_bold",
  "ReceiveCoilActiveElements": "HC1-7",
  "ReceiveCoilName": "HeadNeck_64",
  "ReconMatrixPE": 104,
  "RepetitionTime": 1,
  "SAR": 0.0858577,
  "ScanOptions": "FS",
  "ScanningSequence": "EP",
  "SequenceName": "epfid2d1_104",
  "SequenceVariant": "SK_SS",
  "SeriesDescription": "cmrr_mbepi_task_prf",
  "SeriesNumber": 16,
  "ShimSetting": [241, -12588, -8480, 259, -54, 56, -85, -21],
  "SliceThickness": 2,
  "SliceTiming": [0, 0.535, 0.0875, 0.6225, 0.1775, 0.7125, 0.2675, 0.8, 0.355, 0.89, 0.445, 0, 0.535, 0.0875, 0.6225, 0.1775, 0.7125, 0.2675, 0.8, 0.355, 0.89, 0.445, 0, 0.535, 0.0875, 0.6225, 0.1775, 0.7125, 0.2675, 0.8, 0.355, 0.89, 0.445, 0, 0.535, 0.0875, 0.6225, 0.1775, 0.7125, 0.2675, 0.8, 0.355, 0.89, 0.445, 0, 0.535, 0.0875, 0.6225, 0.1775, 0.7125, 0.2675, 0.8, 0.355, 0.89, 0.445, 0, 0.535, 0.0875, 0.6225, 0.1775, 0.7125, 0.2675, 0.8, 0.355, 0.89, 0.445],
  "SoftwareVersions": "syngo_MR_E11",
  "SpacingBetweenSlices": 2,
  "StationName": "AWP166018",
  "TaskName": "prf",
  "TotalReadoutTime": 0.0597409,
  "TxRefAmp": 246.358,
  "WipMemBlock": "360883c9-fcf2-4dcd-9352-a7ac8d918d94||Sequence: R016 ve11c/master r/8780670; Nov 27 2017 15:05:12 by eja",
  "dcmmeta_affine": [
    [-1.9937180280685425, -0.10064857453107834, -0.12230326235294342, 113.70326232910156],
    [-0.0680229589343071, 1.9387143850326538, -0.4865793287754059, -69.42378997802734],
    [-0.14304231107234955, 0.48089131712913513, 1.936048150062561, -52.05989456176758],
    [0.0, 0.0, 0.0, 1.0]
],
  "dcmmeta_reorient_transform": [
    [0.0, -1.0, 0.0, 103.0],
    [1.0, 0.0, 0.0, 0.0],
    [0.0, 0.0, 1.0, 0.0],
    [0.0, 0.0, 0.0, 1.0]
],
  "dcmmeta_shape": [104, 104, 66, 192],
  "dcmmeta_slice_dim": 2,
  "dcmmeta_version": 0.6,
  "global": {
    "const": {
      "AccessionNumber": "jk46q1x8",
      "AcquisitionMatrix": [104, 0, 0, 104],
      "AngioFlag": "N",
      "BitsAllocated": 16,
      "BitsStored": 16,
      "BodyPartExamined": "BRAIN",
      "Columns": 936,
      "EchoNumbers": 1,
      "EchoTime": 37.0,
      "EchoTrainLength": 104,
      "FlipAngle": 68.0,
      "HighBit": 15,
      "ImageOrientationPatient": [0.99685903916049, 0.03401147973648, -0.0715211527464, -0.0503242891267, 0.96935718613184, -0.2404456521097],
      "ImagePositionPatient": [-890.85336994186, -965.06651767914, 257.02829216873],
      "ImageType": [
        "ORIGINAL",
        "PRIMARY",
        "M",
        "MB",
        "ND",
        "MOSAIC"
],
      "ImagedNucleus": "1H",
      "ImagingFrequency": 123.19105,
      "InPlanePhaseEncodingDirection": "COL",
      "MRAcquisitionType": "2D",
      "MagneticFieldStrength": 3.0,
      "Manufacturer": "SIEMENS",
      "ManufacturerModelName": "Prisma",
      "Modality": "MR",
      "NumberOfAverages": 1.0,
      "NumberOfPhaseEncodingSteps": 104,
      "PercentPhaseFieldOfView": 100.0,
      "PercentSampling": 100.0,
      "PerformedProcedureStepStartTime": "155124.855000",
      "PhotometricInterpretation": "MONOCHROME2",
      "PixelBandwidth": 2290.0,
      "PixelRepresentation": 0,
      "PixelSpacing": [2.0, 2.0],
      "ProtocolName": "cmrr_mbepi_task_prf",
      "RepetitionTime": 1000.0,
      "Rows": 936,
      "SAR": 0.08585768075614,
      "SamplesPerPixel": 1,
      "ScanOptions": "FS",
      "ScanningSequence": "EP",
      "SequenceName": "epfid2d1_104",
      "SequenceVariant": [
        "SK",
        "SS"
],
      "SeriesDescription": "cmrr_mbepi_task_prf",
      "SeriesNumber": 16,
      "SeriesTime": "163129.585000",
      "SliceLocation": -40.458278709386,
      "SliceThickness": 2.0,
      "SmallestImagePixelValue": 0,
      "SoftwareVersions": "syngo MR E11",
      "SpacingBetweenSlices": 1.9999999750047,
      "SpecificCharacterSet": "ISO_IR 100",
      "StudyID": "1",
      "StudyTime": "155124.723000",
      "TransmitCoilName": "Body",
      "VariableFlipAngleFlag": "N",
      "WindowCenterWidthExplanation": "Algo1",
      "dBdt": 0.0},
    "slices": {}
  },
  "time": {
    "samples": {
      "AcquisitionNumber": [1, 2, 3, 4, 5, 6, 7, 8, 9, 10, 11, 12, 13, 14, 15, 16, 17, 18, 19, 20, 21, 22, 23, 24, 25, 26, 27, 28, 29, 30, 31, 32, 33, 34, 35, 36, 37, 38, 39, 40, 41, 42, 43, 44, 45, 46, 47, 48, 49, 50, 51, 52, 53, 54, 55, 56, 57, 58, 59, 60, 61, 62, 63, 64, 65, 66, 67, 68, 69, 70, 71, 72, 73, 74, 75, 76, 77, 78, 79, 80, 81, 82, 83, 84, 85, 86, 87, 88, 89, 90, 91, 92, 93, 94, 95, 96, 97, 98, 99, 100, 101, 102, 103, 104, 105, 106, 107, 108, 109, 110, 111, 112, 113, 114, 115, 116, 117, 118, 119, 120, 121, 122, 123, 124, 125, 126, 127, 128, 129, 130, 131, 132, 133, 134, 135, 136, 137, 138, 139, 140, 141, 142, 143, 144, 145, 146, 147, 148, 149, 150, 151, 152, 153, 154, 155, 156, 157, 158, 159, 160, 161, 162, 163, 164, 165, 166, 167, 168, 169, 170, 171, 172, 173, 174, 175, 176, 177, 178, 179, 180, 181, 182, 183, 184, 185, 186, 187, 188, 189, 190, 191, 192],
      "AcquisitionTime": ["163032.030000", "163033.030000", "163034.030000", "163035.030000", "163036.030000", "163037.030000", "163038.030000", "163039.030000", "163040.030000", "163041.030000", "163042.030000", "163043.030000", "163044.030000", "163045.030000", "163046.030000", "163047.030000", "163048.030000", "163049.030000", "163050.030000", "163051.030000", "163052.030000", "163053.030000", "163054.030000", "163055.030000", "163056.030000", "163057.030000", "163058.030000", "163059.030000", "163100.030000", "163101.030000", "163102.030000", "163103.030000", "163104.030000", "163105.030000", "163106.030000", "163107.030000", "163108.030000", "163109.030000", "163110.030000", "163111.030000", "163112.030000", "163113.030000", "163114.030000", "163115.030000", "163116.030000", "163117.030000", "163118.030000", "163119.030000", "163120.030000", "163121.030000", "163122.030000", "163123.030000", "163124.030000", "163125.030000", "163126.030000", "163127.030000", "163128.030000", "163129.030000", "163130.030000", "163131.030000", "163132.030000", "163133.030000", "163134.030000", "163135.030000", "163136.030000", "163137.030000", "163138.030000", "163139.030000", "163140.030000", "163141.030000", "163142.030000", "163143.030000", "163144.030000", "163145.030000", "163146.030000", "163147.030000", "163148.030000", "163149.030000", "163150.030000", "163151.030000", "163152.030000", "163153.030000", "163154.030000", "163155.030000", "163156.030000", "163157.030000", "163158.030000", "163159.030000", "163200.030000", "163201.030000", "163202.030000", "163203.030000", "163204.030000", "163205.030000", "163206.030000", "163207.030000", "163208.030000", "163209.030000", "163210.030000", "163211.030000", "163212.030000", "163213.030000", "163214.030000", "163215.030000", "163216.030000", "163217.030000", "163218.030000", "163219.030000", "163220.030000", "163221.030000", "163222.030000", "163223.030000", "163224.030000", "163225.030000", "163226.030000", "163227.030000", "163228.030000", "163229.030000", "163230.030000", "163231.030000", "163232.030000", "163233.030000", "163234.030000", "163235.030000", "163236.030000", "163237.030000", "163238.030000", "163239.030000", "163240.030000", "163241.030000", "163242.030000", "163243.030000", "163244.030000", "163245.030000", "163246.030000", "163247.030000", "163248.030000", "163249.030000", "163250.030000", "163251.030000", "163252.030000", "163253.030000", "163254.030000", "163255.030000", "163256.030000", "163257.030000", "163258.030000", "163259.030000", "163300.030000", "163301.030000", "163302.030000", "163303.030000", "163304.030000", "163305.030000", "163306.030000", "163307.030000", "163308.030000", "163309.030000", "163310.030000", "163311.030000", "163312.030000", "163313.030000", "163314.030000", "163315.030000", "163316.030000", "163317.030000", "163318.030000", "163319.030000", "163320.030000", "163321.030000", "163322.030000", "163323.030000", "163324.030000", "163325.030000", "163326.030000", "163327.030000", "163328.030000", "163329.030000", "163330.030000", "163331.030000", "163332.030000", "163333.030000", "163334.030000", "163335.030000", "163336.030000", "163337.030000", "163338.030000", "163339.030000", "163340.030000", "163341.030000", "163342.030000", "163343.030000"],
      "ContentTime": ["163129.588000", "163129.599000", "163129.602000", "163129.605000", "163134.553000", "163134.556000", "163134.559000", "163134.562000", "163134.565000", "163134.568000", "163134.571000", "163139.552000", "163139.563000", "163139.566000", "163139.569000", "163139.572000", "163139.575000", "163139.578000", "163144.553000", "163144.556000", "163144.559000", "163144.562000", "163144.565000", "163144.568000", "163144.571000", "163149.553000", "163149.556000", "163149.559000", "163149.562000", "163149.565000", "163149.568000", "163149.571000", "163154.552000", "163154.555000", "163154.558000", "163154.561000", "163154.564000", "163154.567000", "163154.570000", "163159.553000", "163159.556000", "163159.559000", "163159.562000", "163159.565000", "163159.568000", "163159.571000", "163204.553000", "163204.556000", "163204.559000", "163204.562000", "163204.565000", "163204.568000", "163204.571000", "163209.553000", "163209.556000", "163209.559000", "163209.562000", "163209.565000", "163209.568000", "163209.571000", "163209.583000", "163214.552000", "163214.557000", "163214.561000", "163214.564000", "163214.567000", "163214.569000", "163214.573000", "163219.553000", "163219.556000", "163219.559000", "163219.562000", "163219.565000", "163219.568000", "163219.571000", "163224.553000", "163224.556000", "163224.559000", "163224.562000", "163224.565000", "163224.568000", "163224.571000", "163229.552000", "163229.555000", "163229.558000", "163229.561000", "163229.571000", "163229.574000", "163229.577000", "163234.553000", "163234.556000", "163234.559000", "163234.562000", "163234.565000", "163234.568000", "163234.571000", "163239.553000", "163239.556000", "163239.559000", "163239.562000", "163239.565000", "163239.568000", "163239.571000", "163244.553000", "163244.556000", "163244.560000", "163244.563000", "163244.566000", "163244.569000", "163244.572000", "163249.552000", "163249.555000", "163249.558000", "163249.561000", "163249.564000", "163249.567000", "163249.570000", "163254.553000", "163254.556000", "163254.559000", "163254.562000", "163254.565000", "163254.568000", "163254.571000", "163254.574000", "163259.553000", "163259.556000", "163259.559000", "163259.562000", "163259.565000", "163259.568000", "163259.571000", "163304.552000", "163304.555000", "163304.558000", "163304.561000", "163304.564000", "163304.567000", "163304.570000", "163309.553000", "163309.556000", "163309.559000", "163309.562000", "163309.565000", "163309.568000", "163309.571000", "163314.553000", "163314.556000", "163314.559000", "163314.562000", "163314.565000", "163314.568000", "163314.571000", "163319.553000", "163319.556000", "163319.559000", "163319.562000", "163319.565000", "163319.568000", "163319.571000", "163324.552000", "163324.555000", "163324.558000", "163324.561000", "163324.564000", "163324.567000", "163324.570000", "163329.553000", "163329.556000", "163329.559000", "163329.562000", "163329.565000", "163329.568000", "163329.571000", "163334.553000", "163334.556000", "163334.559000", "163334.562000", "163334.565000", "163334.568000", "163334.571000", "163339.552000", "163339.555000", "163339.564000", "163339.567000", "163339.570000", "163339.573000", "163344.383000", "163344.387000", "163344.390000", "163344.393000", "163344.396000"],
      "InstanceCreationTime": ["163129.588000", "163129.599000", "163129.602000", "163129.605000", "163134.553000", "163134.556000", "163134.559000", "163134.562000", "163134.565000", "163134.568000", "163134.571000", "163139.552000", "163139.563000", "163139.566000", "163139.569000", "163139.572000", "163139.575000", "163139.578000", "163144.553000", "163144.556000", "163144.559000", "163144.562000", "163144.565000", "163144.568000", "163144.571000", "163149.553000", "163149.556000", "163149.559000", "163149.562000", "163149.565000", "163149.568000", "163149.571000", "163154.552000", "163154.555000", "163154.558000", "163154.561000", "163154.564000", "163154.567000", "163154.570000", "163159.553000", "163159.556000", "163159.559000", "163159.562000", "163159.565000", "163159.568000", "163159.571000", "163204.553000", "163204.556000", "163204.559000", "163204.562000", "163204.565000", "163204.568000", "163204.571000", "163209.553000", "163209.556000", "163209.559000", "163209.562000", "163209.565000", "163209.568000", "163209.571000", "163209.583000", "163214.552000", "163214.557000", "163214.561000", "163214.564000", "163214.567000", "163214.569000", "163214.573000", "163219.553000", "163219.556000", "163219.559000", "163219.562000", "163219.565000", "163219.568000", "163219.571000", "163224.553000", "163224.556000", "163224.559000", "163224.562000", "163224.565000", "163224.568000", "163224.571000", "163229.552000", "163229.555000", "163229.558000", "163229.561000", "163229.571000", "163229.574000", "163229.577000", "163234.553000", "163234.556000", "163234.559000", "163234.562000", "163234.565000", "163234.568000", "163234.571000", "163239.553000", "163239.556000", "163239.559000", "163239.562000", "163239.565000", "163239.568000", "163239.571000", "163244.553000", "163244.556000", "163244.560000", "163244.563000", "163244.566000", "163244.569000", "163244.572000", "163249.552000", "163249.555000", "163249.558000", "163249.561000", "163249.564000", "163249.567000", "163249.570000", "163254.553000", "163254.556000", "163254.559000", "163254.562000", "163254.565000", "163254.568000", "163254.571000", "163254.574000", "163259.553000", "163259.556000", "163259.559000", "163259.562000", "163259.565000", "163259.568000", "163259.571000", "163304.552000", "163304.555000", "163304.558000", "163304.561000", "163304.564000", "163304.567000", "163304.570000", "163309.553000", "163309.556000", "163309.559000", "163309.562000", "163309.565000", "163309.568000", "163309.571000", "163314.553000", "163314.556000", "163314.559000", "163314.562000", "163314.565000", "163314.568000", "163314.571000", "163319.553000", "163319.556000", "163319.559000", "163319.562000", "163319.565000", "163319.568000", "163319.571000", "163324.552000", "163324.555000", "163324.558000", "163324.561000", "163324.564000", "163324.567000", "163324.570000", "163329.553000", "163329.556000", "163329.559000", "163329.562000", "163329.565000", "163329.568000", "163329.571000", "163334.553000", "163334.556000", "163334.559000", "163334.562000", "163334.565000", "163334.568000", "163334.571000", "163339.552000", "163339.555000", "163339.564000", "163339.567000", "163339.570000", "163339.573000", "163344.383000", "163344.387000", "163344.390000", "163344.393000", "163344.396000"],
      "InstanceNumber": [1, 2, 3, 4, 5, 6, 7, 8, 9, 10, 11, 12, 13, 14, 15, 16, 17, 18, 19, 20, 21, 22, 23, 24, 25, 26, 27, 28, 29, 30, 31, 32, 33, 34, 35, 36, 37, 38, 39, 40, 41, 42, 43, 44, 45, 46, 47, 48, 49, 50, 51, 52, 53, 54, 55, 56, 57, 58, 59, 60, 61, 62, 63, 64, 65, 66, 67, 68, 69, 70, 71, 72, 73, 74, 75, 76, 77, 78, 79, 80, 81, 82, 83, 84, 85, 86, 87, 88, 89, 90, 91, 92, 93, 94, 95, 96, 97, 98, 99, 100, 101, 102, 103, 104, 105, 106, 107, 108, 109, 110, 111, 112, 113, 114, 115, 116, 117, 118, 119, 120, 121, 122, 123, 124, 125, 126, 127, 128, 129, 130, 131, 132, 133, 134, 135, 136, 137, 138, 139, 140, 141, 142, 143, 144, 145, 146, 147, 148, 149, 150, 151, 152, 153, 154, 155, 156, 157, 158, 159, 160, 161, 162, 163, 164, 165, 166, 167, 168, 169, 170, 171, 172, 173, 174, 175, 176, 177, 178, 179, 180, 181, 182, 183, 184, 185, 186, 187, 188, 189, 190, 191, 192],
      "LargestImagePixelValue": [42241, 41329, 40433, 41241, 40492, 40574, 40734, 40545, 40162, 40166, 40050, 39335, 39025, 39620, 39367, 38431, 39455, 40276, 40212, 39948, 40222, 40514, 39493, 38540, 38993, 39568, 40286, 39888, 40056, 39675, 39590, 39777, 39594, 39563, 40398, 40146, 40459, 40177, 39609, 39384, 38880, 40059, 40665, 40870, 40027, 39901, 39531, 39668, 40631, 41342, 40691, 40684, 39467, 40097, 39145, 37115, 38625, 38985, 39078, 38890, 39914, 39044, 38531, 38877, 39197, 39514, 39668, 39871, 40085, 39637, 39326, 39871, 39275, 40231, 40029, 40166, 40307, 39380, 39297, 40008, 39912, 40333, 40692, 40711, 39843, 39843, 39492, 39838, 40129, 39998, 40686, 40980, 40150, 39226, 39861, 39999, 39281, 39744, 38777, 39602, 40085, 40111, 40254, 40177, 39672, 39768, 40504, 41058, 40527, 40167, 40172, 40036, 40410, 40269, 40645, 40723, 40099, 40078, 39581, 40277, 39896, 40379, 39967, 39316, 39664, 39254, 38998, 39624, 39833, 39997, 39508, 39640, 39326, 39186, 39421, 38835, 38142, 39192, 38976, 37620, 39176, 39494, 38954, 38976, 39571, 39405, 38644, 39394, 39689, 40621, 39976, 40523, 40373, 39862, 39458, 39563, 40703, 40972, 40731, 40033, 39568, 39253, 39879, 40267, 40377, 40079, 40490, 40102, 39631, 40709, 41101, 40482, 40205, 39783, 39420, 38588, 39484, 39367, 39278, 39659, 39244, 39655, 40529, 39650, 39568, 39679, 39365, 40120, 39241, 39478, 39851, 39583],
      "WindowCenter": [10289.0, 10240.0, 10217.0, 10222.0, 10209.0, 10206.0, 10205.0, 10210.0, 10218.0, 10231.0, 10240.0, 10246.0, 10243.0, 10256.0, 10242.0, 10233.0, 10235.0, 10238.0, 10227.0, 10219.0, 10216.0, 10212.0, 10212.0, 10205.0, 10210.0, 10212.0, 10208.0, 10209.0, 10202.0, 10194.0, 10194.0, 10186.0, 10174.0, 10167.0, 10178.0, 10177.0, 10184.0, 10185.0, 10190.0, 10201.0, 10198.0, 10213.0, 10210.0, 10214.0, 10207.0, 10221.0, 10231.0, 10232.0, 10243.0, 10245.0, 10243.0, 10245.0, 10258.0, 10276.0, 10262.0, 10245.0, 10234.0, 10239.0, 10220.0, 10212.0, 10212.0, 10192.0, 10183.0, 10177.0, 10173.0, 10172.0, 10169.0, 10158.0, 10133.0, 10134.0, 10117.0, 10116.0, 10111.0, 10133.0, 10126.0, 10125.0, 10128.0, 10124.0, 10140.0, 10155.0, 10170.0, 10176.0, 10182.0, 10184.0, 10188.0, 10190.0, 10192.0, 10191.0, 10203.0, 10215.0, 10220.0, 10227.0, 10211.0, 10209.0, 10198.0, 10180.0, 10164.0, 10177.0, 10174.0, 10187.0, 10181.0, 10180.0, 10170.0, 10170.0, 10181.0, 10189.0, 10207.0, 10207.0, 10208.0, 10203.0, 10207.0, 10207.0, 10212.0, 10211.0, 10213.0, 10226.0, 10223.0, 10234.0, 10241.0, 10248.0, 10249.0, 10247.0, 10254.0, 10253.0, 10264.0, 10255.0, 10254.0, 10259.0, 10253.0, 10257.0, 10245.0, 10242.0, 10245.0, 10243.0, 10251.0, 10239.0, 10252.0, 10260.0, 10260.0, 10252.0, 10250.0, 10231.0, 10193.0, 10183.0, 10167.0, 10145.0, 10140.0, 10132.0, 10131.0, 10132.0, 10118.0, 10106.0, 10091.0, 10086.0, 10079.0, 10085.0, 10103.0, 10122.0, 10133.0, 10140.0, 10144.0, 10154.0, 10162.0, 10176.0, 10183.0, 10187.0, 10200.0, 10197.0, 10192.0, 10194.0, 10206.0, 10227.0, 10232.0, 10221.0, 10222.0, 10220.0, 10200.0, 10182.0, 10181.0, 10171.0, 10162.0, 10175.0, 10180.0, 10160.0, 10150.0, 10149.0, 10148.0, 10161.0, 10155.0, 10156.0, 10169.0, 10163.0],
      "WindowWidth": [22038.0, 21901.0, 21839.0, 21832.0, 21800.0, 21789.0, 21788.0, 21797.0, 21820.0, 21846.0, 21870.0, 21886.0, 21882.0, 21910.0, 21878.0, 21865.0, 21864.0, 21871.0, 21844.0, 21823.0, 21816.0, 21806.0, 21811.0, 21800.0, 21805.0, 21806.0, 21793.0, 21793.0, 21780.0, 21762.0, 21761.0, 21745.0, 21718.0, 21702.0, 21725.0, 21725.0, 21741.0, 21744.0, 21760.0, 21784.0, 21778.0, 21805.0, 21794.0, 21800.0, 21792.0, 21824.0, 21847.0, 21848.0, 21868.0, 21868.0, 21870.0, 21875.0, 21913.0, 21951.0, 21928.0, 21900.0, 21866.0, 21877.0, 21829.0, 21809.0, 21809.0, 21766.0, 21752.0, 21736.0, 21726.0, 21721.0, 21709.0, 21685.0, 21629.0, 21630.0, 21594.0, 21585.0, 21577.0, 21618.0, 21606.0, 21602.0, 21610.0, 21607.0, 21641.0, 21676.0, 21706.0, 21718.0, 21731.0, 21737.0, 21750.0, 21756.0, 21762.0, 21760.0, 21781.0, 21808.0, 21814.0, 21830.0, 21799.0, 21798.0, 21772.0, 21731.0, 21699.0, 21728.0, 21724.0, 21752.0, 21730.0, 21725.0, 21706.0, 21708.0, 21733.0, 21752.0, 21786.0, 21787.0, 21790.0, 21783.0, 21791.0, 21791.0, 21801.0, 21799.0, 21803.0, 21829.0, 21828.0, 21854.0, 21868.0, 21885.0, 21887.0, 21884.0, 21899.0, 21903.0, 21924.0, 21910.0, 21906.0, 21915.0, 21902.0, 21912.0, 21885.0, 21879.0, 21886.0, 21878.0, 21898.0, 21874.0, 21906.0, 21925.0, 21924.0, 21912.0, 21900.0, 21855.0, 21768.0, 21740.0, 21705.0, 21657.0, 21648.0, 21623.0, 21622.0, 21618.0, 21588.0, 21559.0, 21526.0, 21517.0, 21506.0, 21517.0, 21554.0, 21594.0, 21622.0, 21642.0, 21654.0, 21677.0, 21696.0, 21723.0, 21740.0, 21748.0, 21774.0, 21771.0, 21761.0, 21762.0, 21787.0, 21837.0, 21852.0, 21832.0, 21832.0, 21828.0, 21781.0, 21737.0, 21737.0, 21715.0, 21694.0, 21722.0, 21729.0, 21686.0, 21665.0, 21663.0, 21661.0, 21689.0, 21676.0, 21681.0, 21708.0, 21696.0]
    },
    "slices": {}
  },
  "NumberOfVolumes": 192
}