{
  "aor": 0.0007391005291005291,
  "aqi": 0.004514179100529101,
  "bids_meta": {
    "AcquisitionMatrixPE": 104,
    "AcquisitionNumber": 1,
    "AcquisitionTime": "11:46:23.325000",
    "BandwidthPerPixelPhaseEncode": 16.578,
    "BaseResolution": 104,
    "BodyPartExamined": "BRAIN",
    "CogAtlasID": "TODO",
    "ConsistencyInfo": "N4_VE11C_LATEST_20160120",
    "ConversionSoftware": "dcm2niix",
    "ConversionSoftwareVersion": "v1.0.20190902",
    "DerivedVendorReportedEchoSpacing": 0.000580009,
    "DeviceSerialNumber": "166018",
    "DwellTime": 2.1e-06,
    "EchoTime": 0.037,
    "EchoTrainLength": 104,
    "EffectiveEchoSpacing": 0.000580009,
    "FlipAngle": 68,
    "ImageComments": "Unaliased_MB6_PE3_LB",
    "ImageOrientationPatientDICOM": [
      0.9986,
      0.0527384,
      0.00419263,
      -0.0509364,
      0.979837,
      -0.193198
    ],
    "ImageType": [
      "ORIGINAL",
      "PRIMARY",
      "M",
      "MB",
      "ND",
      "MOSAIC"
    ],
    "ImagingFrequency": 123.191,
    "InPlanePhaseEncodingDirectionDICOM": "COL",
    "InstitutionAddress": "Washington_Place_6_NYC_NYC_US_10003",
    "InstitutionName": "NYU_-_CBI",
    "InstitutionalDepartmentName": "Department",
    "MRAcquisitionType": "2D",
    "MagneticFieldStrength": 3,
    "Manufacturer": "Siemens",
    "ManufacturersModelName": "Prisma",
    "Modality": "MR",
    "MultibandAccelerationFactor": 6,
    "NumberOfVolumes": 192,
    "PartialFourier": 1,
    "PatientPosition": "HFS",
    "PercentPhaseFOV": 100,
    "PhaseEncodingDirection": "j",
    "PhaseEncodingSteps": 104,
    "PhaseResolution": 1,
    "PixelBandwidth": 2290,
    "ProcedureStepDescription": "Investigators_Winawer",
    "ProtocolName": "cmrr_mbepi_s6_2mm_66sl_PA_task-prf",
    "PulseSequenceDetails": "%CustomerSeq%_cmrr_mbep2d_bold",
    "ReceiveCoilActiveElements": "HC1-7",
    "ReceiveCoilName": "HeadNeck_64",
    "ReconMatrixPE": 104,
    "RepetitionTime": 1,
    "SAR": 0.0698491,
    "ScanOptions": "FS",
    "ScanningSequence": "EP",
    "SequenceName": "epfid2d1_104",
    "SequenceVariant": "SK_SS",
    "SeriesDescription": "cmrr_mbepi_s6_2mm_66sl_PA_task-prf",
    "SeriesNumber": 18,
    "ShimSetting": [
      240,
      -12627,
      -8425,
      410,
      -10,
      -157,
      -141,
      22
    ],
    "SliceThickness": 2,
    "SliceTiming": [
      0,
      0.535,
      0.09,
      0.625,
      0.18,
      0.7125,
      0.2675,
      0.8025,
      0.3575,
      0.8925,
      0.445,
      0,
      0.535,
      0.09,
      0.625,
      0.18,
      0.7125,
      0.2675,
      0.8025,
      0.3575,
      0.8925,
      0.445,
      0,
      0.535,
      0.09,
      0.625,
      0.18,
      0.7125,
      0.2675,
      0.8025,
      0.3575,
      0.8925,
      0.445,
      0,
      0.535,
      0.09,
      0.625,
      0.18,
      0.7125,
      0.2675,
      0.8025,
      0.3575,
      0.8925,
      0.445,
      0,
      0.535,
      0.09,
      0.625,
      0.18,
      0.7125,
      0.2675,
      0.8025,
      0.3575,
      0.8925,
      0.445,
      0,
      0.535,
      0.09,
      0.625,
      0.18,
      0.7125,
      0.2675,
      0.8025,
      0.3575,
      0.8925,
      0.445
    ],
    "SoftwareVersions": "syngo_MR_E11",
    "SpacingBetweenSlices": 2,
    "StationName": "AWP166018",
    "TaskName": "prf",
    "TotalReadoutTime": 0.0597409,
    "TxRefAmp": 209.192,
    "WipMemBlock": "1bfeecb2-e826-441e-90a5-a4c050c77c8f||Sequence: R016 ve11c/master r/8780670; Nov 27 2017 15:05:12 by eja",
    "acq_id": "PA",
    "dataset": "unknown",
    "dcmmeta_affine": [
      [
        -1.9971991777420044,
        -0.10187274217605591,
        0.02859412133693695,
        115.3166732788086
      ],
      [
        -0.10547684878110886,
        1.9596734046936035,
        -0.3854280412197113,
        -71.6098861694336
      ],
      [
        0.008385265246033669,
        0.38639625906944275,
        1.9623016119003296,
        -62.766014099121094
      ],
      [
        0.0,
        0.0,
        0.0,
        1.0
      ]
    ],
    "dcmmeta_reorient_transform": [
      [
        0.0,
        -1.0,
        0.0,
        103.0
      ],
      [
        1.0,
        0.0,
        0.0,
        0.0
      ],
      [
        0.0,
        0.0,
        1.0,
        0.0
      ],
      [
        0.0,
        0.0,
        0.0,
        1.0
      ]
    ],
    "dcmmeta_shape": [
      104,
      104,
      66,
      192
    ],
    "dcmmeta_slice_dim": 2,
    "dcmmeta_version": 0.6,
    "global": {
      "const": {
        "AccessionNumber": "jxw5tytt",
        "AcquisitionMatrix": [
          104,
          0,
          0,
          104
        ],
        "AngioFlag": "N",
        "BitsAllocated": 16,
        "BitsStored": 16,
        "BodyPartExamined": "BRAIN",
        "Columns": 936,
        "EchoNumbers": 1,
        "EchoTime": 37.0,
        "EchoTrainLength": 104,
        "FlipAngle": 68.0,
        "HighBit": 15,
        "ImageOrientationPatient": [
          0.99859955954261,
          0.05273842537912,
          0.00419263280496,
          -0.0509363694073,
          0.97983670400195,
          -0.1931981360215
        ],
        "ImagePositionPatient": [
          -893.27955590703,
          -989.33898252341,
          134.28537934324
        ],
        "ImageType": [
          "ORIGINAL",
          "PRIMARY",
          "M",
          "MB",
          "ND",
          "MOSAIC"
        ],
        "ImagedNucleus": "1H",
        "ImagingFrequency": 123.191118,
        "InPlanePhaseEncodingDirection": "COL",
        "MRAcquisitionType": "2D",
        "MagneticFieldStrength": 3.0,
        "Manufacturer": "SIEMENS",
        "ManufacturerModelName": "Prisma",
        "Modality": "MR",
        "NumberOfAverages": 1.0,
        "NumberOfPhaseEncodingSteps": 104,
        "PercentPhaseFieldOfView": 100.0,
        "PercentSampling": 100.0,
        "PerformedProcedureStepStartTime": "110536.164000",
        "PhotometricInterpretation": "MONOCHROME2",
        "PixelBandwidth": 2290.0,
        "PixelRepresentation": 0,
        "PixelSpacing": [
          2.0,
          2.0
        ],
        "ProtocolName": "cmrr_mbepi_s6_2mm_66sl_PA_task-prf",
        "RepetitionTime": 1000.0,
        "Rows": 936,
        "SAR": 0.06984905528673,
        "SamplesPerPixel": 1,
        "ScanOptions": "FS",
        "ScanningSequence": "EP",
        "SequenceName": "epfid2d1_104",
        "SequenceVariant": [
          "SK",
          "SS"
        ],
        "SeriesDescription": "cmrr_mbepi_s6_2mm_66sl_PA_task-prf",
        "SeriesNumber": 18,
        "SeriesTime": "114718.585000",
        "SliceLocation": -46.134008221898,
        "SliceThickness": 2.0,
        "SmallestImagePixelValue": 0,
        "SoftwareVersions": "syngo MR E11",
        "SpacingBetweenSlices": 2.000000018924,
        "SpecificCharacterSet": "ISO_IR 100",
        "StudyID": "1",
        "StudyTime": "110536.105000",
        "TransmitCoilName": "Body",
        "VariableFlipAngleFlag": "N",
        "WindowCenterWidthExplanation": "Algo1",
        "dBdt": 0.0
      },
      "slices": {}
    },
    "modality": "bold",
    "run_id": 6,
    "session_id": "nyu3t01",
    "subject_id": "wlsubj104",
    "task_id": "prf",
    "time": {
      "samples": {
        "AcquisitionNumber": [
          1,
          2,
          3,
          4,
          5,
          6,
          7,
          8,
          9,
          10,
          11,
          12,
          13,
          14,
          15,
          16,
          17,
          18,
          19,
          20,
          21,
          22,
          23,
          24,
          25,
          26,
          27,
          28,
          29,
          30,
          31,
          32,
          33,
          34,
          35,
          36,
          37,
          38,
          39,
          40,
          41,
          42,
          43,
          44,
          45,
          46,
          47,
          48,
          49,
          50,
          51,
          52,
          53,
          54,
          55,
          56,
          57,
          58,
          59,
          60,
          61,
          62,
          63,
          64,
          65,
          66,
          67,
          68,
          69,
          70,
          71,
          72,
          73,
          74,
          75,
          76,
          77,
          78,
          79,
          80,
          81,
          82,
          83,
          84,
          85,
          86,
          87,
          88,
          89,
          90,
          91,
          92,
          93,
          94,
          95,
          96,
          97,
          98,
          99,
          100,
          101,
          102,
          103,
          104,
          105,
          106,
          107,
          108,
          109,
          110,
          111,
          112,
          113,
          114,
          115,
          116,
          117,
          118,
          119,
          120,
          121,
          122,
          123,
          124,
          125,
          126,
          127,
          128,
          129,
          130,
          131,
          132,
          133,
          134,
          135,
          136,
          137,
          138,
          139,
          140,
          141,
          142,
          143,
          144,
          145,
          146,
          147,
          148,
          149,
          150,
          151,
          152,
          153,
          154,
          155,
          156,
          157,
          158,
          159,
          160,
          161,
          162,
          163,
          164,
          165,
          166,
          167,
          168,
          169,
          170,
          171,
          172,
          173,
          174,
          175,
          176,
          177,
          178,
          179,
          180,
          181,
          182,
          183,
          184,
          185,
          186,
          187,
          188,
          189,
          190,
          191,
          192
        ],
        "AcquisitionTime": [
          "114623.325000",
          "114624.325000",
          "114625.325000",
          "114626.325000",
          "114627.325000",
          "114628.325000",
          "114629.325000",
          "114630.325000",
          "114631.325000",
          "114632.325000",
          "114633.325000",
          "114634.325000",
          "114635.325000",
          "114636.325000",
          "114637.325000",
          "114638.325000",
          "114639.325000",
          "114640.325000",
          "114641.325000",
          "114642.325000",
          "114643.325000",
          "114644.325000",
          "114645.325000",
          "114646.325000",
          "114647.325000",
          "114648.325000",
          "114649.325000",
          "114650.325000",
          "114651.325000",
          "114652.325000",
          "114653.325000",
          "114654.325000",
          "114655.325000",
          "114656.325000",
          "114657.325000",
          "114658.325000",
          "114659.325000",
          "114700.325000",
          "114701.325000",
          "114702.325000",
          "114703.325000",
          "114704.325000",
          "114705.325000",
          "114706.325000",
          "114707.325000",
          "114708.325000",
          "114709.325000",
          "114710.325000",
          "114711.325000",
          "114712.325000",
          "114713.325000",
          "114714.325000",
          "114715.325000",
          "114716.325000",
          "114717.325000",
          "114718.325000",
          "114719.325000",
          "114720.325000",
          "114721.325000",
          "114722.325000",
          "114723.325000",
          "114724.325000",
          "114725.325000",
          "114726.325000",
          "114727.325000",
          "114728.325000",
          "114729.325000",
          "114730.325000",
          "114731.325000",
          "114732.325000",
          "114733.325000",
          "114734.325000",
          "114735.325000",
          "114736.325000",
          "114737.325000",
          "114738.325000",
          "114739.325000",
          "114740.325000",
          "114741.325000",
          "114742.325000",
          "114743.325000",
          "114744.325000",
          "114745.325000",
          "114746.325000",
          "114747.325000",
          "114748.325000",
          "114749.325000",
          "114750.325000",
          "114751.325000",
          "114752.325000",
          "114753.325000",
          "114754.325000",
          "114755.325000",
          "114756.325000",
          "114757.325000",
          "114758.325000",
          "114759.325000",
          "114800.325000",
          "114801.325000",
          "114802.325000",
          "114803.325000",
          "114804.325000",
          "114805.325000",
          "114806.325000",
          "114807.325000",
          "114808.325000",
          "114809.325000",
          "114810.325000",
          "114811.325000",
          "114812.325000",
          "114813.325000",
          "114814.325000",
          "114815.325000",
          "114816.325000",
          "114817.325000",
          "114818.325000",
          "114819.325000",
          "114820.325000",
          "114821.325000",
          "114822.325000",
          "114823.325000",
          "114824.325000",
          "114825.325000",
          "114826.325000",
          "114827.325000",
          "114828.325000",
          "114829.325000",
          "114830.325000",
          "114831.325000",
          "114832.325000",
          "114833.325000",
          "114834.325000",
          "114835.325000",
          "114836.325000",
          "114837.325000",
          "114838.325000",
          "114839.325000",
          "114840.325000",
          "114841.325000",
          "114842.325000",
          "114843.325000",
          "114844.325000",
          "114845.325000",
          "114846.325000",
          "114847.325000",
          "114848.325000",
          "114849.325000",
          "114850.325000",
          "114851.325000",
          "114852.325000",
          "114853.325000",
          "114854.325000",
          "114855.325000",
          "114856.325000",
          "114857.325000",
          "114858.325000",
          "114859.325000",
          "114900.325000",
          "114901.325000",
          "114902.325000",
          "114903.325000",
          "114904.325000",
          "114905.325000",
          "114906.325000",
          "114907.325000",
          "114908.325000",
          "114909.325000",
          "114910.325000",
          "114911.325000",
          "114912.325000",
          "114913.325000",
          "114914.325000",
          "114915.325000",
          "114916.325000",
          "114917.325000",
          "114918.325000",
          "114919.325000",
          "114920.325000",
          "114921.325000",
          "114922.325000",
          "114923.325000",
          "114924.325000",
          "114925.325000",
          "114926.325000",
          "114927.325000",
          "114928.325000",
          "114929.325000",
          "114930.325000",
          "114931.325000",
          "114932.325000",
          "114933.325000",
          "114934.325000"
        ],
        "ContentTime": [
          "114718.588000",
          "114718.592000",
          "114718.595000",
          "114718.598000",
          "114718.601000",
          "114738.525000",
          "114738.528000",
          "114738.531000",
          "114738.542000",
          "114738.545000",
          "114738.548000",
          "114738.552000",
          "114738.555000",
          "114738.557000",
          "114738.561000",
          "114738.564000",
          "114738.567000",
          "114738.570000",
          "114738.573000",
          "114738.576000",
          "114738.579000",
          "114738.582000",
          "114738.585000",
          "114738.588000",
          "114738.591000",
          "114738.594000",
          "114738.597000",
          "114738.600000",
          "114738.603000",
          "114738.606000",
          "114738.615000",
          "114738.618000",
          "114738.621000",
          "114758.525000",
          "114758.528000",
          "114758.531000",
          "114758.534000",
          "114758.537000",
          "114758.540000",
          "114758.543000",
          "114758.546000",
          "114758.549000",
          "114758.552000",
          "114758.555000",
          "114758.558000",
          "114758.561000",
          "114758.564000",
          "114758.567000",
          "114758.571000",
          "114758.574000",
          "114758.577000",
          "114758.580000",
          "114758.583000",
          "114758.586000",
          "114758.589000",
          "114758.592000",
          "114758.595000",
          "114758.598000",
          "114758.601000",
          "114758.604000",
          "114758.607000",
          "114758.610000",
          "114818.525000",
          "114818.528000",
          "114818.531000",
          "114818.534000",
          "114818.537000",
          "114818.540000",
          "114818.543000",
          "114818.546000",
          "114818.549000",
          "114818.552000",
          "114818.555000",
          "114818.558000",
          "114818.561000",
          "114818.564000",
          "114818.567000",
          "114818.571000",
          "114818.574000",
          "114818.577000",
          "114818.580000",
          "114818.583000",
          "114818.586000",
          "114818.589000",
          "114818.592000",
          "114818.595000",
          "114818.598000",
          "114818.601000",
          "114818.608000",
          "114818.611000",
          "114838.525000",
          "114838.528000",
          "114838.531000",
          "114838.534000",
          "114838.537000",
          "114838.540000",
          "114838.543000",
          "114838.546000",
          "114838.549000",
          "114838.552000",
          "114838.555000",
          "114838.559000",
          "114838.561000",
          "114838.565000",
          "114838.568000",
          "114838.572000",
          "114838.575000",
          "114838.578000",
          "114838.581000",
          "114838.584000",
          "114838.587000",
          "114838.590000",
          "114838.593000",
          "114838.596000",
          "114838.599000",
          "114838.602000",
          "114838.605000",
          "114838.608000",
          "114858.526000",
          "114858.529000",
          "114858.532000",
          "114858.535000",
          "114858.538000",
          "114858.541000",
          "114858.544000",
          "114858.548000",
          "114858.550000",
          "114858.553000",
          "114858.556000",
          "114858.560000",
          "114858.563000",
          "114858.566000",
          "114858.569000",
          "114858.572000",
          "114858.575000",
          "114858.578000",
          "114858.581000",
          "114858.584000",
          "114858.587000",
          "114858.590000",
          "114858.593000",
          "114858.596000",
          "114858.599000",
          "114858.602000",
          "114858.605000",
          "114858.608000",
          "114918.526000",
          "114918.529000",
          "114918.532000",
          "114918.535000",
          "114918.538000",
          "114918.541000",
          "114918.544000",
          "114918.547000",
          "114918.550000",
          "114918.553000",
          "114918.557000",
          "114918.560000",
          "114918.563000",
          "114918.566000",
          "114918.569000",
          "114918.572000",
          "114918.575000",
          "114918.578000",
          "114918.585000",
          "114918.588000",
          "114918.591000",
          "114918.594000",
          "114918.597000",
          "114918.600000",
          "114918.603000",
          "114918.606000",
          "114918.609000",
          "114918.612000",
          "114935.967000",
          "114935.970000",
          "114935.973000",
          "114935.976000",
          "114935.979000",
          "114935.982000",
          "114935.985000",
          "114935.989000",
          "114935.992000",
          "114935.995000",
          "114935.998000",
          "114936.002000",
          "114936.005000",
          "114936.008000",
          "114936.011000",
          "114936.014000",
          "114936.017000",
          "114936.020000"
        ],
        "InstanceCreationTime": [
          "114718.588000",
          "114718.592000",
          "114718.595000",
          "114718.598000",
          "114718.601000",
          "114738.525000",
          "114738.528000",
          "114738.531000",
          "114738.542000",
          "114738.545000",
          "114738.548000",
          "114738.552000",
          "114738.555000",
          "114738.557000",
          "114738.561000",
          "114738.564000",
          "114738.567000",
          "114738.570000",
          "114738.573000",
          "114738.576000",
          "114738.579000",
          "114738.582000",
          "114738.585000",
          "114738.588000",
          "114738.591000",
          "114738.594000",
          "114738.597000",
          "114738.600000",
          "114738.603000",
          "114738.606000",
          "114738.615000",
          "114738.618000",
          "114738.621000",
          "114758.525000",
          "114758.528000",
          "114758.531000",
          "114758.534000",
          "114758.537000",
          "114758.540000",
          "114758.543000",
          "114758.546000",
          "114758.549000",
          "114758.552000",
          "114758.555000",
          "114758.558000",
          "114758.561000",
          "114758.564000",
          "114758.567000",
          "114758.571000",
          "114758.574000",
          "114758.577000",
          "114758.580000",
          "114758.583000",
          "114758.586000",
          "114758.589000",
          "114758.592000",
          "114758.595000",
          "114758.598000",
          "114758.601000",
          "114758.604000",
          "114758.607000",
          "114758.610000",
          "114818.525000",
          "114818.528000",
          "114818.531000",
          "114818.534000",
          "114818.537000",
          "114818.540000",
          "114818.543000",
          "114818.546000",
          "114818.549000",
          "114818.552000",
          "114818.555000",
          "114818.558000",
          "114818.561000",
          "114818.564000",
          "114818.567000",
          "114818.571000",
          "114818.574000",
          "114818.577000",
          "114818.580000",
          "114818.583000",
          "114818.586000",
          "114818.589000",
          "114818.592000",
          "114818.595000",
          "114818.598000",
          "114818.601000",
          "114818.608000",
          "114818.611000",
          "114838.525000",
          "114838.528000",
          "114838.531000",
          "114838.534000",
          "114838.537000",
          "114838.540000",
          "114838.543000",
          "114838.546000",
          "114838.549000",
          "114838.552000",
          "114838.555000",
          "114838.559000",
          "114838.561000",
          "114838.565000",
          "114838.568000",
          "114838.572000",
          "114838.575000",
          "114838.578000",
          "114838.581000",
          "114838.584000",
          "114838.587000",
          "114838.590000",
          "114838.593000",
          "114838.596000",
          "114838.599000",
          "114838.602000",
          "114838.605000",
          "114838.608000",
          "114858.526000",
          "114858.529000",
          "114858.532000",
          "114858.535000",
          "114858.538000",
          "114858.541000",
          "114858.544000",
          "114858.548000",
          "114858.550000",
          "114858.553000",
          "114858.556000",
          "114858.560000",
          "114858.563000",
          "114858.566000",
          "114858.569000",
          "114858.572000",
          "114858.575000",
          "114858.578000",
          "114858.581000",
          "114858.584000",
          "114858.587000",
          "114858.590000",
          "114858.593000",
          "114858.596000",
          "114858.599000",
          "114858.602000",
          "114858.605000",
          "114858.608000",
          "114918.526000",
          "114918.529000",
          "114918.532000",
          "114918.535000",
          "114918.538000",
          "114918.541000",
          "114918.544000",
          "114918.547000",
          "114918.550000",
          "114918.553000",
          "114918.557000",
          "114918.560000",
          "114918.563000",
          "114918.566000",
          "114918.569000",
          "114918.572000",
          "114918.575000",
          "114918.578000",
          "114918.585000",
          "114918.588000",
          "114918.591000",
          "114918.594000",
          "114918.597000",
          "114918.600000",
          "114918.603000",
          "114918.606000",
          "114918.609000",
          "114918.612000",
          "114935.967000",
          "114935.970000",
          "114935.973000",
          "114935.976000",
          "114935.979000",
          "114935.982000",
          "114935.985000",
          "114935.989000",
          "114935.992000",
          "114935.995000",
          "114935.998000",
          "114936.002000",
          "114936.005000",
          "114936.008000",
          "114936.011000",
          "114936.014000",
          "114936.017000",
          "114936.020000"
        ],
        "InstanceNumber": [
          1,
          2,
          3,
          4,
          5,
          6,
          7,
          8,
          9,
          10,
          11,
          12,
          13,
          14,
          15,
          16,
          17,
          18,
          19,
          20,
          21,
          22,
          23,
          24,
          25,
          26,
          27,
          28,
          29,
          30,
          31,
          32,
          33,
          34,
          35,
          36,
          37,
          38,
          39,
          40,
          41,
          42,
          43,
          44,
          45,
          46,
          47,
          48,
          49,
          50,
          51,
          52,
          53,
          54,
          55,
          56,
          57,
          58,
          59,
          60,
          61,
          62,
          63,
          64,
          65,
          66,
          67,
          68,
          69,
          70,
          71,
          72,
          73,
          74,
          75,
          76,
          77,
          78,
          79,
          80,
          81,
          82,
          83,
          84,
          85,
          86,
          87,
          88,
          89,
          90,
          91,
          92,
          93,
          94,
          95,
          96,
          97,
          98,
          99,
          100,
          101,
          102,
          103,
          104,
          105,
          106,
          107,
          108,
          109,
          110,
          111,
          112,
          113,
          114,
          115,
          116,
          117,
          118,
          119,
          120,
          121,
          122,
          123,
          124,
          125,
          126,
          127,
          128,
          129,
          130,
          131,
          132,
          133,
          134,
          135,
          136,
          137,
          138,
          139,
          140,
          141,
          142,
          143,
          144,
          145,
          146,
          147,
          148,
          149,
          150,
          151,
          152,
          153,
          154,
          155,
          156,
          157,
          158,
          159,
          160,
          161,
          162,
          163,
          164,
          165,
          166,
          167,
          168,
          169,
          170,
          171,
          172,
          173,
          174,
          175,
          176,
          177,
          178,
          179,
          180,
          181,
          182,
          183,
          184,
          185,
          186,
          187,
          188,
          189,
          190,
          191,
          192
        ],
        "LargestImagePixelValue": [
          41840,
          40567,
          39970,
          39676,
          39376,
          39226,
          39400,
          39383,
          39100,
          39169,
          39047,
          38915,
          39287,
          39276,
          39117,
          39107,
          39586,
          39434,
          39425,
          38963,
          39466,
          39468,
          39746,
          39793,
          39358,
          39725,
          39186,
          39386,
          39522,
          39184,
          39409,
          39077,
          39534,
          39762,
          39758,
          39647,
          39989,
          39415,
          39770,
          39426,
          39518,
          39086,
          39092,
          38973,
          39143,
          39098,
          39095,
          39122,
          39334,
          39015,
          38833,
          39382,
          39756,
          39584,
          39670,
          39520,
          39733,
          39954,
          39641,
          39548,
          39612,
          39079,
          39222,
          39025,
          39219,
          39229,
          39413,
          39187,
          39280,
          39220,
          38971,
          39257,
          39730,
          39711,
          39504,
          39531,
          39764,
          39794,
          39641,
          39292,
          39116,
          39448,
          39142,
