{
  "AcquisitionMatrixPE": 104,
  "AcquisitionNumber": 1,
  "AcquisitionTime": "17:40:0.490000",
  "BandwidthPerPixelPhaseEncode": 16.578,
  "BaseResolution": 104,
  "BodyPartExamined": "BRAIN",
  "ConsistencyInfo": "N4_VE11C_LATEST_20160120",
  "ConversionSoftware": "dcm2niix",
  "ConversionSoftwareVersion": "v1.0.20190902",
  "DerivedVendorReportedEchoSpacing": 0.000580009,
  "DeviceSerialNumber": "166018",
  "DwellTime": 2.1e-06,
  "EchoTime": 0.037,
  "EchoTrainLength": 104,
  "EffectiveEchoSpacing": 0.000580009,
  "FlipAngle": 68,
  "ImageComments": "Unaliased_MB6_PE3_LB",
  "ImageOrientationPatientDICOM": [0.999994, 0.00049522, 0.00344817, 0.000523572, 0.957233, -0.289316],
  "ImageType": [
    "ORIGINAL",
    "PRIMARY",
    "M",
    "MB",
    "ND",
    "MOSAIC"
],
  "ImagingFrequency": 123.191,
  "InPlanePhaseEncodingDirectionDICOM": "COL",
  "InstitutionAddress": "Washington_Place_6_NYC_NYC_US_10003",
  "InstitutionName": "NYU_Center_for_Brain_Imaging",
  "InstitutionalDepartmentName": "Department",
  "MRAcquisitionType": "2D",
  "MagneticFieldStrength": 3,
  "Manufacturer": "Siemens",
  "ManufacturersModelName": "Prisma",
  "Modality": "MR",
  "MultibandAccelerationFactor": 6,
  "PartialFourier": 1,
  "PatientPosition": "HFS",
  "PercentPhaseFOV": 100,
  "PhaseEncodingDirection": "j",
  "PhaseEncodingSteps": 104,
  "PhaseResolution": 1,
  "PixelBandwidth": 2290,
  "ProcedureStepDescription": "Investigators_Winawer",
  "ProtocolName": "cmrr_mbepi_s6_2mm_66sl_PA_task-prf",
  "PulseSequenceDetails": "%CustomerSeq%_cmrr_mbep2d_bold",
  "ReceiveCoilActiveElements": "HC1-7",
  "ReceiveCoilName": "HeadNeck_64",
  "ReconMatrixPE": 104,
  "RepetitionTime": 1,
  "SAR": 0.0603576,
  "ScanOptions": "FS",
  "ScanningSequence": "EP",
  "SequenceName": "epfid2d1_104",
  "SequenceVariant": "SK_SS",
  "SeriesDescription": "cmrr_mbepi_s6_2mm_66sl_PA_task-prf",
  "SeriesNumber": 14,
  "ShimSetting": [242, -12614, -8495, 413, -56, 140, -157, 19],
  "SliceThickness": 2,
  "SliceTiming": [0, 0.535, 0.0875, 0.6225, 0.1775, 0.7125, 0.2675, 0.8, 0.355, 0.89, 0.445, 0, 0.535, 0.0875, 0.6225, 0.1775, 0.7125, 0.2675, 0.8, 0.355, 0.89, 0.445, 0, 0.535, 0.0875, 0.6225, 0.1775, 0.7125, 0.2675, 0.8, 0.355, 0.89, 0.445, 0, 0.535, 0.0875, 0.6225, 0.1775, 0.7125, 0.2675, 0.8, 0.355, 0.89, 0.445, 0, 0.535, 0.0875, 0.6225, 0.1775, 0.7125, 0.2675, 0.8, 0.355, 0.89, 0.445, 0, 0.535, 0.0875, 0.6225, 0.1775, 0.7125, 0.2675, 0.8, 0.355, 0.89, 0.445],
  "SoftwareVersions": "syngo_MR_E11",
  "SpacingBetweenSlices": 2,
  "StationName": "AWP166018",
  "TaskName": "prf",
  "TotalReadoutTime": 0.0597409,
  "TxRefAmp": 213.445,
  "WipMemBlock": "be6da9ce-12d5-4b28-82cb-6e292074ef89||Sequence: R016 ve11c/master r/8780670; Nov 27 2017 15:05:12 by eja",
  "dcmmeta_affine": [
    [-1.9999878406524658, 0.0010471435962244868, 0.006887949071824551, 108.51509094238281],
    [-0.0009904401376843452, 1.9144669771194458, -0.5786323547363281, -70.68016815185547],
    [0.00689633097499609, 0.5786322355270386, 1.9144548177719116, -76.74503326416016],
    [0.0, 0.0, 0.0, 1.0]
],
  "dcmmeta_reorient_transform": [
    [0.0, -1.0, 0.0, 103.0],
    [1.0, 0.0, 0.0, 0.0],
    [0.0, 0.0, 1.0, 0.0],
    [0.0, 0.0, 0.0, 1.0]
],
  "dcmmeta_shape": [104, 104, 66, 192],
  "dcmmeta_slice_dim": 2,
  "dcmmeta_version": 0.6,
  "global": {
    "const": {
      "AccessionNumber": "juLLh44k",
      "AcquisitionMatrix": [104, 0, 0, 104],
      "AngioFlag": "N",
      "BitsAllocated": 16,
      "BitsStored": 16,
      "BodyPartExamined": "BRAIN",
      "Columns": 936,
      "EchoNumbers": 1,
      "EchoTime": 37.0,
      "EchoTrainLength": 104,
      "FlipAngle": 68.0,
      "HighBit": 15,
      "ImageOrientationPatient": [0.99999393243719, 0.0004952200849, 0.00344816557976, 0.0005235718208, 0.95723346644146, -0.2893161187992],
      "ImagePositionPatient": [-941.05351392933, -923.3401956845, 220.6962216572],
      "ImageType": [
        "ORIGINAL",
        "PRIMARY",
        "M",
        "MB",
        "ND",
        "MOSAIC"
],
      "ImagedNucleus": "1H",
      "ImagingFrequency": 123.191074,
      "InPlanePhaseEncodingDirection": "COL",
      "MRAcquisitionType": "2D",
      "MagneticFieldStrength": 3.0,
      "Manufacturer": "SIEMENS",
      "ManufacturerModelName": "Prisma",
      "Modality": "MR",
      "NumberOfAverages": 1.0,
      "NumberOfPhaseEncodingSteps": 104,
      "PercentPhaseFieldOfView": 100.0,
      "PercentSampling": 100.0,
      "PerformedProcedureStepStartTime": "171417.341000",
      "PhotometricInterpretation": "MONOCHROME2",
      "PixelBandwidth": 2290.0,
      "PixelRepresentation": 0,
      "PixelSpacing": [2.0, 2.0],
      "ProtocolName": "cmrr_mbepi_s6_2mm_66sl_PA_task-prf",
      "RepetitionTime": 1000.0,
      "Rows": 936,
      "SAR": 0.06035761134849,
      "SamplesPerPixel": 1,
      "ScanOptions": "FS",
      "ScanningSequence": "EP",
      "SequenceName": "epfid2d1_104",
      "SequenceVariant": [
        "SK",
        "SS"
],
      "SeriesDescription": "cmrr_mbepi_s6_2mm_66sl_PA_task-prf",
      "SeriesNumber": 14,
      "SeriesTime": "174117.091000",
      "SliceLocation": -52.639813153631,
      "SliceThickness": 2.0,
      "SmallestImagePixelValue": 0,
      "SoftwareVersions": "syngo MR E11",
      "SpacingBetweenSlices": 1.9999999805911,
      "SpecificCharacterSet": "ISO_IR 100",
      "StudyID": "1",
      "StudyTime": "171417.280000",
      "TransmitCoilName": "Body",
      "VariableFlipAngleFlag": "N",
      "WindowCenterWidthExplanation": "Algo1",
      "dBdt": 0.0},
    "slices": {}
  },
  "time": {
    "samples": {
      "AcquisitionNumber": [1, 2, 3, 4, 5, 6, 7, 8, 9, 10, 11, 12, 13, 14, 15, 16, 17, 18, 19, 20, 21, 22, 23, 24, 25, 26, 27, 28, 29, 30, 31, 32, 33, 34, 35, 36, 37, 38, 39, 40, 41, 42, 43, 44, 45, 46, 47, 48, 49, 50, 51, 52, 53, 54, 55, 56, 57, 58, 59, 60, 61, 62, 63, 64, 65, 66, 67, 68, 69, 70, 71, 72, 73, 74, 75, 76, 77, 78, 79, 80, 81, 82, 83, 84, 85, 86, 87, 88, 89, 90, 91, 92, 93, 94, 95, 96, 97, 98, 99, 100, 101, 102, 103, 104, 105, 106, 107, 108, 109, 110, 111, 112, 113, 114, 115, 116, 117, 118, 119, 120, 121, 122, 123, 124, 125, 126, 127, 128, 129, 130, 131, 132, 133, 134, 135, 136, 137, 138, 139, 140, 141, 142, 143, 144, 145, 146, 147, 148, 149, 150, 151, 152, 153, 154, 155, 156, 157, 158, 159, 160, 161, 162, 163, 164, 165, 166, 167, 168, 169, 170, 171, 172, 173, 174, 175, 176, 177, 178, 179, 180, 181, 182, 183, 184, 185, 186, 187, 188, 189, 190, 191, 192],
      "AcquisitionTime": ["174000.490000", "174001.490000", "174002.490000", "174003.490000", "174004.490000", "174005.490000", "174006.490000", "174007.490000", "174008.490000", "174009.490000", "174010.490000", "174011.490000", "174012.490000", "174013.490000", "174014.490000", "174015.490000", "174016.490000", "174017.490000", "174018.490000", "174019.490000", "174020.490000", "174021.490000", "174022.490000", "174023.490000", "174024.490000", "174025.490000", "174026.490000", "174027.490000", "174028.490000", "174029.490000", "174030.490000", "174031.490000", "174032.490000", "174033.490000", "174034.490000", "174035.490000", "174036.490000", "174037.490000", "174038.490000", "174039.490000", "174040.490000", "174041.490000", "174042.490000", "174043.490000", "174044.490000", "174045.490000", "174046.490000", "174047.490000", "174048.490000", "174049.490000", "174050.490000", "174051.490000", "174052.490000", "174053.490000", "174054.490000", "174055.490000", "174056.490000", "174057.490000", "174058.490000", "174059.490000", "174100.490000", "174101.490000", "174102.490000", "174103.490000", "174104.490000", "174105.490000", "174106.490000", "174107.490000", "174108.490000", "174109.490000", "174110.490000", "174111.490000", "174112.490000", "174113.490000", "174114.490000", "174115.490000", "174116.490000", "174117.490000", "174118.490000", "174119.490000", "174120.490000", "174121.490000", "174122.490000", "174123.490000", "174124.490000", "174125.490000", "174126.490000", "174127.490000", "174128.490000", "174129.490000", "174130.490000", "174131.490000", "174132.490000", "174133.490000", "174134.490000", "174135.490000", "174136.490000", "174137.490000", "174138.490000", "174139.490000", "174140.490000", "174141.490000", "174142.490000", "174143.490000", "174144.490000", "174145.490000", "174146.490000", "174147.490000", "174148.490000", "174149.490000", "174150.490000", "174151.490000", "174152.490000", "174153.490000", "174154.490000", "174155.490000", "174156.490000", "174157.490000", "174158.490000", "174159.490000", "174200.490000", "174201.490000", "174202.490000", "174203.490000", "174204.490000", "174205.490000", "174206.490000", "174207.490000", "174208.490000", "174209.490000", "174210.490000", "174211.490000", "174212.490000", "174213.490000", "174214.490000", "174215.490000", "174216.490000", "174217.490000", "174218.490000", "174219.490000", "174220.490000", "174221.490000", "174222.490000", "174223.490000", "174224.490000", "174225.490000", "174226.490000", "174227.490000", "174228.490000", "174229.490000", "174230.490000", "174231.490000", "174232.490000", "174233.490000", "174234.490000", "174235.490000", "174236.490000", "174237.490000", "174238.490000", "174239.490000", "174240.490000", "174241.490000", "174242.490000", "174243.490000", "174244.490000", "174245.490000", "174246.490000", "174247.490000", "174248.490000", "174249.490000", "174250.490000", "174251.490000", "174252.490000", "174253.490000", "174254.490000", "174255.490000", "174256.490000", "174257.490000", "174258.490000", "174259.490000", "174300.490000", "174301.490000", "174302.490000", "174303.490000", "174304.490000", "174305.490000", "174306.490000", "174307.490000", "174308.490000", "174309.490000", "174310.490000", "174311.490000"],
      "ContentTime": ["174117.095000", "174117.098000", "174117.101000", "174117.104000", "174117.107000", "174117.110000", "174117.113000", "174117.116000", "174117.118000", "174117.121000", "174117.124000", "174117.127000", "174117.130000", "174117.133000", "174117.136000", "174117.139000", "174117.142000", "174117.151000", "174117.154000", "174117.156000", "174117.159000", "174117.162000", "174117.165000", "174117.168000", "174117.171000", "174117.174000", "174117.177000", "174117.179000", "174117.182000", "174117.185000", "174117.188000", "174137.065000", "174137.068000", "174137.071000", "174137.074000", "174137.077000", "174137.080000", "174137.082000", "174137.085000", "174137.088000", "174137.091000", "174137.094000", "174137.097000", "174137.100000", "174137.103000", "174137.105000", "174137.108000", "174137.111000", "174137.114000", "174137.117000", "174137.127000", "174137.130000", "174137.133000", "174137.136000", "174137.139000", "174137.142000", "174137.145000", "174137.147000", "174137.150000", "174157.065000", "174157.068000", "174157.071000", "174157.074000", "174157.077000", "174157.079000", "174157.082000", "174157.085000", "174157.088000", "174157.091000", "174157.094000", "174157.097000", "174157.099000", "174157.102000", "174157.119000", "174157.122000", "174157.124000", "174157.127000", "174157.130000", "174157.133000", "174157.136000", "174157.139000", "174157.142000", "174157.144000", "174157.147000", "174157.150000", "174157.159000", "174157.162000", "174217.064000", "174217.067000", "174217.070000", "174217.073000", "174217.076000", "174217.078000", "174217.081000", "174217.084000", "174217.087000", "174217.090000", "174217.093000", "174217.096000", "174217.098000", "174217.101000", "174217.104000", "174217.107000", "174217.110000", "174217.113000", "174217.116000", "174217.119000", "174217.121000", "174217.124000", "174217.127000", "174217.130000", "174217.133000", "174217.136000", "174217.139000", "174217.141000", "174217.144000", "174237.065000", "174237.068000", "174237.071000", "174237.074000", "174237.077000", "174237.079000", "174237.082000", "174237.085000", "174237.088000", "174237.091000", "174237.094000", "174237.097000", "174237.100000", "174237.103000", "174237.106000", "174237.108000", "174237.111000", "174237.114000", "174237.117000", "174237.120000", "174237.123000", "174237.126000", "174237.128000", "174237.131000", "174237.134000", "174237.137000", "174237.140000", "174237.143000", "174257.065000", "174257.068000", "174257.075000", "174257.078000", "174257.081000", "174257.084000", "174257.087000", "174257.090000", "174257.093000", "174257.096000", "174257.098000", "174257.101000", "174257.104000", "174257.107000", "174257.110000", "174257.113000", "174257.116000", "174257.119000", "174257.122000", "174257.132000", "174257.135000", "174257.137000", "174257.140000", "174257.143000", "174257.146000", "174257.149000", "174257.152000", "174257.154000", "174313.056000", "174313.059000", "174313.062000", "174313.065000", "174313.068000", "174313.071000", "174313.074000", "174313.076000", "174313.079000", "174313.082000", "174313.085000", "174313.088000", "174313.091000", "174313.094000", "174313.096000", "174313.099000", "174313.102000", "174313.105000", "174313.108000", "174313.111000"],
      "InstanceCreationTime": ["174117.095000", "174117.098000", "174117.101000", "174117.104000", "174117.107000", "174117.110000", "174117.113000", "174117.116000", "174117.118000", "174117.121000", "174117.124000", "174117.127000", "174117.130000", "174117.133000", "174117.136000", "174117.139000", "174117.142000", "174117.151000", "174117.154000", "174117.156000", "174117.159000", "174117.162000", "174117.165000", "174117.168000", "174117.171000", "174117.174000", "174117.177000", "174117.179000", "174117.182000", "174117.185000", "174117.188000", "174137.065000", "174137.068000", "174137.071000", "174137.074000", "174137.077000", "174137.080000", "174137.082000", "174137.085000", "174137.088000", "174137.091000", "174137.094000", "174137.097000", "174137.100000", "174137.103000", "174137.105000", "174137.108000", "174137.111000", "174137.114000", "174137.117000", "174137.127000", "174137.130000", "174137.133000", "174137.136000", "174137.139000", "174137.142000", "174137.145000", "174137.147000", "174137.150000", "174157.065000", "174157.068000", "174157.071000", "174157.074000", "174157.077000", "174157.079000", "174157.082000", "174157.085000", "174157.088000", "174157.091000", "174157.094000", "174157.097000", "174157.099000", "174157.102000", "174157.119000", "174157.122000", "174157.124000", "174157.127000", "174157.130000", "174157.133000", "174157.136000", "174157.139000", "174157.142000", "174157.144000", "174157.147000", "174157.150000", "174157.159000", "174157.162000", "174217.064000", "174217.067000", "174217.070000", "174217.073000", "174217.076000", "174217.078000", "174217.081000", "174217.084000", "174217.087000", "174217.090000", "174217.093000", "174217.096000", "174217.098000", "174217.101000", "174217.104000", "174217.107000", "174217.110000", "174217.113000", "174217.116000", "174217.119000", "174217.121000", "174217.124000", "174217.127000", "174217.130000", "174217.133000", "174217.136000", "174217.139000", "174217.141000", "174217.144000", "174237.065000", "174237.068000", "174237.071000", "174237.074000", "174237.077000", "174237.079000", "174237.082000", "174237.085000", "174237.088000", "174237.091000", "174237.094000", "174237.097000", "174237.100000", "174237.103000", "174237.106000", "174237.108000", "174237.111000", "174237.114000", "174237.117000", "174237.120000", "174237.123000", "174237.126000", "174237.128000", "174237.131000", "174237.134000", "174237.137000", "174237.140000", "174237.143000", "174257.065000", "174257.068000", "174257.075000", "174257.078000", "174257.081000", "174257.084000", "174257.087000", "174257.090000", "174257.093000", "174257.096000", "174257.098000", "174257.101000", "174257.104000", "174257.107000", "174257.110000", "174257.113000", "174257.116000", "174257.119000", "174257.122000", "174257.132000", "174257.135000", "174257.137000", "174257.140000", "174257.143000", "174257.146000", "174257.149000", "174257.152000", "174257.154000", "174313.056000", "174313.059000", "174313.062000", "174313.065000", "174313.068000", "174313.071000", "174313.074000", "174313.076000", "174313.079000", "174313.082000", "174313.085000", "174313.088000", "174313.091000", "174313.094000", "174313.096000", "174313.099000", "174313.102000", "174313.105000", "174313.108000", "174313.111000"],
      "InstanceNumber": [1, 2, 3, 4, 5, 6, 7, 8, 9, 10, 11, 12, 13, 14, 15, 16, 17, 18, 19, 20, 21, 22, 23, 24, 25, 26, 27, 28, 29, 30, 31, 32, 33, 34, 35, 36, 37, 38, 39, 40, 41, 42, 43, 44, 45, 46, 47, 48, 49, 50, 51, 52, 53, 54, 55, 56, 57, 58, 59, 60, 61, 62, 63, 64, 65, 66, 67, 68, 69, 70, 71, 72, 73, 74, 75, 76, 77, 78, 79, 80, 81, 82, 83, 84, 85, 86, 87, 88, 89, 90, 91, 92, 93, 94, 95, 96, 97, 98, 99, 100, 101, 102, 103, 104, 105, 106, 107, 108, 109, 110, 111, 112, 113, 114, 115, 116, 117, 118, 119, 120, 121, 122, 123, 124, 125, 126, 127, 128, 129, 130, 131, 132, 133, 134, 135, 136, 137, 138, 139, 140, 141, 142, 143, 144, 145, 146, 147, 148, 149, 150, 151, 152, 153, 154, 155, 156, 157, 158, 159, 160, 161, 162, 163, 164, 165, 166, 167, 168, 169, 170, 171, 172, 173, 174, 175, 176, 177, 178, 179, 180, 181, 182, 183, 184, 185, 186, 187, 188, 189, 190, 191, 192],
      "LargestImagePixelValue": [32972, 32454, 31734, 30479, 30830, 30894, 30749, 31217, 31540, 30816, 30894, 31142, 31230, 31544, 31637, 31285, 32164, 32004, 31037, 30871, 31442, 30682, 31372, 30876, 30232, 31284, 30967, 31147, 31343, 30824, 31489, 30994, 30869, 30828, 31385, 31571, 31200, 32216, 31873, 31413, 32093, 31263, 30978, 30932, 30895, 30518, 30738, 30486, 30546, 31009, 31625, 31728, 31517, 31281, 30257, 31261, 31537, 31433, 31346, 31062, 31047, 31309, 31007, 31031, 31822, 31867, 31734, 32738, 31605, 32417, 32625, 31585, 31387, 31706, 31215, 31245, 31736, 31337, 31296, 31506, 31272, 31533, 32045, 31087, 31350, 31691, 31527, 31311, 31971, 30989, 30695, 31085, 30658, 30744, 30931, 30795, 30741, 31018, 30746, 30267, 31461, 31460, 31329, 31260, 31668, 30857, 30960, 31706, 30780, 31443, 31570, 31357, 31069, 31776, 31425, 31266, 32015, 30964, 30712, 31831, 31664, 31864, 31753, 31405, 31249, 31430, 31588, 31469, 31445, 31346, 30922, 31063, 31592, 31844, 31169, 31860, 31916, 32152, 31972, 31785, 31773, 31281, 31286, 31757, 31307, 31037, 31910, 31659, 31791, 31778, 32343, 31803, 31952, 31889, 32174, 32704, 32478, 32443, 32464, 32064, 32274, 32044, 31955, 32637, 32719, 31592, 31662, 32007, 31595, 31809, 31330, 31199, 30407, 31163, 31103, 31657, 31357, 31033, 30658, 31021, 31428, 30845, 31815, 31457, 31155, 31839, 31593, 31755, 31827, 32015, 31355, 31569],
      "WindowCenter": [9558.0, 9532.0, 9509.0, 9491.0, 9490.0, 9480.0, 9463.0, 9468.0, 9475.0, 9462.0, 9475.0, 9476.0, 9468.0, 9474.0, 9474.0, 9459.0, 9468.0, 9456.0, 9435.0, 9435.0, 9448.0, 9436.0, 9456.0, 9453.0, 9440.0, 9463.0, 9451.0, 9442.0, 9448.0, 9436.0, 9438.0, 9432.0, 9427.0, 9433.0, 9456.0, 9464.0, 9454.0, 9451.0, 9445.0, 9430.0, 9441.0, 9430.0, 9428.0, 9437.0, 9458.0, 9452.0, 9457.0, 9439.0, 9429.0, 9433.0, 9444.0, 9442.0, 9446.0, 9449.0, 9438.0, 9449.0, 9453.0, 9437.0, 9427.0, 9430.0, 9445.0, 9466.0, 9477.0, 9469.0, 9466.0, 9457.0, 9440.0, 9457.0, 9448.0, 9452.0, 9465.0, 9449.0, 9440.0, 9455.0, 9451.0, 9450.0, 9447.0, 9432.0, 9428.0, 9430.0, 9438.0, 9452.0, 9477.0, 9477.0, 9467.0, 9474.0, 9473.0, 9460.0, 9462.0, 9440.0, 9431.0, 9447.0, 9459.0, 9467.0, 9476.0, 9469.0, 9452.0, 9442.0, 9442.0, 9428.0, 9446.0, 9455.0, 9450.0, 9456.0, 9471.0, 9454.0, 9452.0, 9465.0, 9446.0, 9451.0, 9471.0, 9469.0, 9459.0, 9472.0, 9457.0, 9440.0, 9452.0, 9456.0, 9451.0, 9462.0, 9463.0, 9460.0, 9454.0, 9463.0, 9455.0, 9462.0, 9470.0, 9456.0, 9449.0, 9455.0, 9449.0, 9442.0, 9455.0, 9462.0, 9442.0, 9460.0, 9462.0, 9462.0, 9453.0, 9435.0, 9428.0, 9428.0, 9444.0, 9453.0, 9447.0, 9448.0, 9460.0, 9447.0, 9446.0, 9454.0, 9466.0, 9463.0, 9473.0, 9482.0, 9489.0, 9492.0, 9471.0, 9477.0, 9477.0, 9471.0, 9486.0, 9481.0, 9495.0, 9516.0, 9517.0, 9498.0, 9489.0, 9478.0, 9460.0, 9454.0, 9454.0, 9466.0, 9477.0, 9500.0, 9485.0, 9474.0, 9464.0, 9452.0, 9444.0, 9456.0, 9457.0, 9444.0, 9462.0, 9456.0, 9449.0, 9464.0, 9467.0, 9464.0, 9455.0, 9461.0, 9440.0, 9436.0],
      "WindowWidth": [20418.0, 20351.0, 20297.0, 20263.0, 20260.0, 20233.0, 20196.0, 20205.0, 20219.0, 20195.0, 20222.0, 20225.0, 20206.0, 20219.0, 20218.0, 20187.0, 20198.0, 20173.0, 20131.0, 20132.0, 20153.0, 20132.0, 20174.0, 20171.0, 20144.0, 20187.0, 20161.0, 20144.0, 20155.0, 20131.0, 20134.0, 20120.0, 20111.0, 20123.0, 20175.0, 20192.0, 20168.0, 20159.0, 20146.0, 20118.0, 20138.0, 20115.0, 20106.0, 20127.0, 20176.0, 20167.0, 20177.0, 20139.0, 20113.0, 20121.0, 20139.0, 20132.0, 20147.0, 20158.0, 20138.0, 20158.0, 20164.0, 20125.0, 20102.0, 20111.0, 20147.0, 20200.0, 20229.0, 20212.0, 20204.0, 20180.0, 20143.0, 20172.0, 20157.0, 20162.0, 20189.0, 20159.0, 20139.0, 20171.0, 20166.0, 20166.0, 20155.0, 20119.0, 20109.0, 20112.0, 20130.0, 20161.0, 20223.0, 20227.0, 20202.0, 20219.0, 20215.0, 20190.0, 20186.0, 20135.0, 20115.0, 20150.0, 20183.0, 20201.0, 20224.0, 20207.0, 20166.0, 20143.0, 20139.0, 20112.0, 20148.0, 20170.0, 20161.0, 20175.0, 20206.0, 20177.0, 20167.0, 20193.0, 20156.0, 20164.0, 20208.0, 20206.0, 20188.0, 20212.0, 20176.0, 20138.0, 20162.0, 20173.0, 20165.0, 20186.0, 20188.0, 20176.0, 20170.0, 20187.0, 20169.0, 20188.0, 20204.0, 20173.0, 20159.0, 20169.0, 20157.0, 20147.0, 20175.0, 20186.0, 20148.0, 20182.0, 20188.0, 20187.0, 20168.0, 20122.0, 20106.0, 20106.0, 20143.0, 20162.0, 20152.0, 20157.0, 20179.0, 20153.0, 20152.0, 20168.0, 20189.0, 20192.0, 20217.0, 20236.0, 20253.0, 20253.0, 20212.0, 20224.0, 20222.0, 20213.0, 20246.0, 20236.0, 20272.0, 20313.0, 20313.0, 20272.0, 20250.0, 20218.0, 20178.0, 20164.0, 20164.0, 20198.0, 20224.0, 20277.0, 20242.0, 20213.0, 20190.0, 20164.0, 20152.0, 20176.0, 20178.0, 20151.0, 20186.0, 20175.0, 20161.0, 20195.0, 20200.0, 20191.0, 20167.0, 20176.0, 20131.0, 20119.0]
    },
    "slices": {}
  },
  "NumberOfVolumes": 192
}