{
  "aor": 0.0008026842105263158,
  "aqi": 0.004464187210526316,
  "bids_meta": {
    "AcquisitionMatrixPE": 104,
    "AcquisitionNumber": 1,
    "AcquisitionTime": "15:32:39.515000",
    "BandwidthPerPixelPhaseEncode": 16.578,
    "BaseResolution": 104,
    "BodyPartExamined": "BRAIN",
    "CogAtlasID": "TODO",
    "ConsistencyInfo": "N4_VE11C_LATEST_20160120",
    "ConversionSoftware": "dcm2niix",
    "ConversionSoftwareVersion": "v1.0.20190902",
    "DerivedVendorReportedEchoSpacing": 0.000580009,
    "DeviceSerialNumber": "166018",
    "DwellTime": 2.1e-06,
    "EchoTime": 0.037,
    "EchoTrainLength": 104,
    "EffectiveEchoSpacing": 0.000580009,
    "FlipAngle": 68,
    "ImageComments": "Unaliased_MB6_PE3_LB",
    "ImageOrientationPatientDICOM": [
      0.995749,
      0.0575733,
      -0.0718976,
      -0.0699788,
      0.980415,
      -0.18409
    ],
    "ImageType": [
      "ORIGINAL",
      "PRIMARY",
      "FMRI",
      "NONE",
      "MB",
      "ND",
      "MOSAIC"
    ],
    "ImagingFrequency": 123.191,
    "InPlanePhaseEncodingDirectionDICOM": "COL",
    "InstitutionAddress": "Washington_Place_6_NYC_NYC_US_10003",
    "InstitutionName": "NYU_-_CBI",
    "InstitutionalDepartmentName": "Department",
    "MRAcquisitionType": "2D",
    "MagneticFieldStrength": 3,
    "Manufacturer": "Siemens",
    "ManufacturersModelName": "Prisma",
    "Modality": "MR",
    "MultibandAccelerationFactor": 6,
    "NumberOfVolumes": 192,
    "PartialFourier": 1,
    "PatientPosition": "HFS",
    "PercentPhaseFOV": 100,
    "PhaseEncodingDirection": "j",
    "PhaseEncodingSteps": 104,
    "PhaseResolution": 1,
    "PixelBandwidth": 2290,
    "ProcedureStepDescription": "Investigators_Winawer",
    "ProtocolName": "cmrr_mbepi_s6_2mm_66sl_PA_task-prf",
    "PulseSequenceDetails": "%CustomerSeq%_cmrr_mbep2d_bold",
    "ReceiveCoilActiveElements": "HC1-7",
    "ReceiveCoilName": "HeadNeck_64",
    "ReconMatrixPE": 104,
    "RepetitionTime": 1,
    "SAR": 0.0735244,
    "ScanOptions": "FS",
    "ScanningSequence": "EP",
    "SequenceName": "epfid2d1_104",
    "SequenceVariant": "SK_SS",
    "SeriesDescription": "cmrr_mbepi_s6_2mm_66sl_PA_task-prf",
    "SeriesNumber": 38,
    "ShimSetting": [
      249,
      -12594,
      -8436,
      307,
      68,
      -97,
      85,
      80
    ],
    "SliceThickness": 2,
    "SliceTiming": [
      0,
      0.5325,
      0.0875,
      0.6225,
      0.1775,
      0.7125,
      0.2675,
      0.8,
      0.355,
      0.89,
      0.445,
      0,
      0.5325,
      0.0875,
      0.6225,
      0.1775,
      0.7125,
      0.2675,
      0.8,
      0.355,
      0.89,
      0.445,
      0,
      0.5325,
      0.0875,
      0.6225,
      0.1775,
      0.7125,
      0.2675,
      0.8,
      0.355,
      0.89,
      0.445,
      0,
      0.5325,
      0.0875,
      0.6225,
      0.1775,
      0.7125,
      0.2675,
      0.8,
      0.355,
      0.89,
      0.445,
      0,
      0.5325,
      0.0875,
      0.6225,
      0.1775,
      0.7125,
      0.2675,
      0.8,
      0.355,
      0.89,
      0.445,
      0,
      0.5325,
      0.0875,
      0.6225,
      0.1775,
      0.7125,
      0.2675,
      0.8,
      0.355,
      0.89,
      0.445
    ],
    "SoftwareVersions": "syngo_MR_E11",
    "SpacingBetweenSlices": 2,
    "StationName": "AWP166018",
    "TaskName": "prf",
    "TotalReadoutTime": 0.0597409,
    "TxRefAmp": 219.82,
    "WipMemBlock": "0e7078cb-3744-49c6-b311-83d4ace718eb||Sequence: R016 ve11c/master r/8780670; Nov 27 2017 15:05:12 by eja",
    "acq_id": "PA",
    "dataset": "unknown",
    "dcmmeta_affine": [
      [
        -1.9914979934692383,
        -0.13995765149593353,
        -0.11978162080049515,
        116.59408569335938
      ],
      [
        -0.11514659225940704,
        1.9608303308486938,
        -0.37667712569236755,
        -71.59881591796875
      ],
      [
        -0.14379513263702393,
        0.36817964911460876,
        1.9605525732040405,
        -59.780704498291016
      ],
      [
        0.0,
        0.0,
        0.0,
        1.0
      ]
    ],
    "dcmmeta_reorient_transform": [
      [
        0.0,
        -1.0,
        0.0,
        103.0
      ],
      [
        1.0,
        0.0,
        0.0,
        0.0
      ],
      [
        0.0,
        0.0,
        1.0,
        0.0
      ],
      [
        0.0,
        0.0,
        0.0,
        1.0
      ]
    ],
    "dcmmeta_shape": [
      104,
      104,
      66,
      192
    ],
    "dcmmeta_slice_dim": 2,
    "dcmmeta_version": 0.6,
    "global": {
      "const": {
        "AccessionNumber": "juLtgji7",
        "AcquisitionMatrix": [
          104,
          0,
          0,
          104
        ],
        "AngioFlag": "N",
        "BitsAllocated": 16,
        "BitsStored": 16,
        "BodyPartExamined": "BRAIN",
        "Columns": 936,
        "EchoNumbers": 1,
        "EchoTime": 37.0,
        "EchoTrainLength": 104,
        "FlipAngle": 68.0,
        "HighBit": 15,
        "ImageOrientationPatient": [
          0.99574899212958,
          0.0575732943715,
          -0.0718975691393,
          -0.0699788223171,
          0.98041516808814,
          -0.1840898221244
        ],
        "ImagePositionPatient": [
          -872.4192267991,
          -993.97311158305,
          191.12330985619
        ],
        "ImageType": [
          "ORIGINAL",
          "PRIMARY",
          "FMRI",
          "NONE",
          "MB",
          "ND",
          "MOSAIC"
        ],
        "ImagedNucleus": "1H",
        "ImagingFrequency": 123.191018,
        "InPlanePhaseEncodingDirection": "COL",
        "MRAcquisitionType": "2D",
        "MagneticFieldStrength": 3.0,
        "Manufacturer": "SIEMENS",
        "ManufacturerModelName": "Prisma",
        "Modality": "MR",
        "NumberOfAverages": 1.0,
        "NumberOfPhaseEncodingSteps": 104,
        "PercentPhaseFieldOfView": 100.0,
        "PercentSampling": 100.0,
        "PerformedProcedureStepStartTime": "145457.116000",
        "PhotometricInterpretation": "MONOCHROME2",
        "PixelBandwidth": 2290.0,
        "PixelRepresentation": 0,
        "PixelSpacing": [
          2.0,
          2.0
        ],
        "ProtocolName": "cmrr_mbepi_s6_2mm_66sl_PA_task-prf",
        "RepetitionTime": 1000.0,
        "Rows": 936,
        "SAR": 0.07352442353441,
        "SamplesPerPixel": 1,
        "ScanOptions": "FS",
        "ScanningSequence": "EP",
        "SequenceName": "epfid2d1_104",
        "SequenceVariant": [
          "SK",
          "SS"
        ],
        "SeriesDescription": "cmrr_mbepi_s6_2mm_66sl_PA_task-prf",
        "SeriesNumber": 38,
        "SeriesTime": "153329.967000",
        "SliceLocation": -52.099704391474,
        "SliceThickness": 2.0,
        "SmallestImagePixelValue": 0,
        "SoftwareVersions": "syngo MR E11",
        "SpacingBetweenSlices": 1.9999999722402,
        "SpecificCharacterSet": "ISO_IR 100",
        "StudyID": "1",
        "StudyTime": "145457.069000",
        "TransmitCoilName": "Body",
        "VariableFlipAngleFlag": "N",
        "WindowCenterWidthExplanation": "Algo1",
        "dBdt": 0.0
      },
      "slices": {}
    },
    "modality": "bold",
    "run_id": 6,
    "session_id": "nyu3t01",
    "subject_id": "wlsubj087",
    "task_id": "prf",
    "time": {
      "samples": {
        "AcquisitionNumber": [
          1,
          2,
          3,
          4,
          5,
          6,
          7,
          8,
          9,
          10,
          11,
          12,
          13,
          14,
          15,
          16,
          17,
          18,
          19,
          20,
          21,
          22,
          23,
          24,
          25,
          26,
          27,
          28,
          29,
          30,
          31,
          32,
          33,
          34,
          35,
          36,
          37,
          38,
          39,
          40,
          41,
          42,
          43,
          44,
          45,
          46,
          47,
          48,
          49,
          50,
          51,
          52,
          53,
          54,
          55,
          56,
          57,
          58,
          59,
          60,
          61,
          62,
          63,
          64,
          65,
          66,
          67,
          68,
          69,
          70,
          71,
          72,
          73,
          74,
          75,
          76,
          77,
          78,
          79,
          80,
          81,
          82,
          83,
          84,
          85,
          86,
          87,
          88,
          89,
          90,
          91,
          92,
          93,
          94,
          95,
          96,
          97,
          98,
          99,
          100,
          101,
          102,
          103,
          104,
          105,
          106,
          107,
          108,
          109,
          110,
          111,
          112,
          113,
          114,
          115,
          116,
          117,
          118,
          119,
          120,
          121,
          122,
          123,
          124,
          125,
          126,
          127,
          128,
          129,
          130,
          131,
          132,
          133,
          134,
          135,
          136,
          137,
          138,
          139,
          140,
          141,
          142,
          143,
          144,
          145,
          146,
          147,
          148,
          149,
          150,
          151,
          152,
          153,
          154,
          155,
          156,
          157,
          158,
          159,
          160,
          161,
          162,
          163,
          164,
          165,
          166,
          167,
          168,
          169,
          170,
          171,
          172,
          173,
          174,
          175,
          176,
          177,
          178,
          179,
          180,
          181,
          182,
          183,
          184,
          185,
          186,
          187,
          188,
          189,
          190,
          191,
          192
        ],
        "AcquisitionTime": [
          "153239.515000",
          "153240.515000",
          "153241.515000",
          "153242.515000",
          "153243.515000",
          "153244.515000",
          "153245.515000",
          "153246.515000",
          "153247.515000",
          "153248.515000",
          "153249.515000",
          "153250.515000",
          "153251.515000",
          "153252.515000",
          "153253.515000",
          "153254.515000",
          "153255.515000",
          "153256.515000",
          "153257.515000",
          "153258.515000",
          "153259.515000",
          "153300.515000",
          "153301.515000",
          "153302.515000",
          "153303.515000",
          "153304.515000",
          "153305.515000",
          "153306.515000",
          "153307.515000",
          "153308.515000",
          "153309.515000",
          "153310.515000",
          "153311.515000",
          "153312.515000",
          "153313.515000",
          "153314.515000",
          "153315.515000",
          "153316.515000",
          "153317.515000",
          "153318.515000",
          "153319.515000",
          "153320.515000",
          "153321.515000",
          "153322.515000",
          "153323.515000",
          "153324.515000",
          "153325.515000",
          "153326.515000",
          "153327.515000",
          "153328.515000",
          "153329.515000",
          "153330.515000",
          "153331.515000",
          "153332.515000",
          "153333.515000",
          "153334.515000",
          "153335.515000",
          "153336.515000",
          "153337.515000",
          "153338.515000",
          "153339.515000",
          "153340.515000",
          "153341.515000",
          "153342.515000",
          "153343.515000",
          "153344.515000",
          "153345.515000",
          "153346.515000",
          "153347.515000",
          "153348.515000",
          "153349.515000",
          "153350.515000",
          "153351.515000",
          "153352.515000",
          "153353.515000",
          "153354.515000",
          "153355.515000",
          "153356.515000",
          "153357.515000",
          "153358.515000",
          "153359.515000",
          "153400.515000",
          "153401.515000",
          "153402.515000",
          "153403.515000",
          "153404.515000",
          "153405.515000",
          "153406.515000",
          "153407.515000",
          "153408.515000",
          "153409.515000",
          "153410.515000",
          "153411.515000",
          "153412.515000",
          "153413.515000",
          "153414.515000",
          "153415.515000",
          "153416.515000",
          "153417.515000",
          "153418.515000",
          "153419.515000",
          "153420.515000",
          "153421.515000",
          "153422.515000",
          "153423.515000",
          "153424.515000",
          "153425.515000",
          "153426.515000",
          "153427.515000",
          "153428.515000",
          "153429.515000",
          "153430.515000",
          "153431.515000",
          "153432.515000",
          "153433.515000",
          "153434.515000",
          "153435.515000",
          "153436.515000",
          "153437.515000",
          "153438.515000",
          "153439.515000",
          "153440.515000",
          "153441.515000",
          "153442.515000",
          "153443.515000",
          "153444.515000",
          "153445.515000",
          "153446.515000",
          "153447.515000",
          "153448.515000",
          "153449.515000",
          "153450.515000",
          "153451.515000",
          "153452.515000",
          "153453.515000",
          "153454.515000",
          "153455.515000",
          "153456.515000",
          "153457.515000",
          "153458.515000",
          "153459.515000",
          "153500.515000",
          "153501.515000",
          "153502.515000",
          "153503.515000",
          "153504.515000",
          "153505.515000",
          "153506.515000",
          "153507.515000",
          "153508.515000",
          "153509.515000",
          "153510.515000",
          "153511.515000",
          "153512.515000",
          "153513.515000",
          "153514.515000",
          "153515.515000",
          "153516.515000",
          "153517.515000",
          "153518.515000",
          "153519.515000",
          "153520.515000",
          "153521.515000",
          "153522.515000",
          "153523.515000",
          "153524.515000",
          "153525.515000",
          "153526.515000",
          "153527.515000",
          "153528.515000",
          "153529.515000",
          "153530.515000",
          "153531.515000",
          "153532.515000",
          "153533.515000",
          "153534.515000",
          "153535.515000",
          "153536.515000",
          "153537.515000",
          "153538.515000",
          "153539.515000",
          "153540.515000",
          "153541.515000",
          "153542.515000",
          "153543.515000",
          "153544.515000",
          "153545.515000",
          "153546.515000",
          "153547.515000",
          "153548.515000",
          "153549.515000",
          "153550.515000"
        ],
        "ContentTime": [
          "153329.970000",
          "153330.578000",
          "153331.349000",
          "153332.002000",
          "153332.731000",
          "153333.425000",
          "153334.122000",
          "153334.822000",
          "153335.493000",
          "153336.234000",
          "153336.882000",
          "153337.636000",
          "153338.349000",
          "153339.039000",
          "153339.796000",
          "153340.447000",
          "153341.295000",
          "153341.950000",
          "153342.708000",
          "153343.366000",
          "153344.113000",
          "153344.751000",
          "153345.518000",
          "153346.260000",
          "153346.984000",
          "153347.669000",
          "153348.476000",
          "153349.078000",
          "153349.854000",
          "153350.563000",
          "153351.263000",
          "153351.959000",
          "153352.604000",
          "153353.413000",
          "153354.038000",
          "153354.822000",
          "153355.499000",
          "153356.237000",
          "153356.916000",
          "153357.657000",
          "153358.308000",
          "153359.101000",
          "153359.768000",
          "153400.527000",
          "153401.218000",
          "153401.951000",
          "153402.592000",
          "153403.409000",
          "153404.085000",
          "153404.847000",
          "153405.514000",
          "153406.312000",
          "153406.963000",
          "153407.733000",
          "153408.366000",
          "153409.137000",
          "153409.787000",
          "153410.494000",
          "153411.287000",
          "153411.921000",
          "153412.603000",
          "153413.318000",
          "153414.004000",
          "153414.722000",
          "153415.400000",
          "153416.134000",
          "153416.810000",
          "153417.500000",
          "153418.236000",
          "153418.932000",
          "153419.657000",
          "153420.313000",
          "153421.056000",
          "153421.717000",
          "153422.442000",
          "153423.133000",
          "153423.834000",
          "153424.535000",
          "153425.271000",
          "153425.945000",
          "153426.658000",
          "153427.435000",
          "153428.097000",
          "153428.833000",
          "153429.495000",
          "153430.242000",
          "153430.899000",
          "153431.578000",
          "153432.285000",
          "153432.958000",
          "153433.695000",
          "153434.379000",
          "153435.109000",
          "153435.828000",
          "153436.576000",
          "153437.254000",
          "153438.020000",
          "153438.704000",
          "153439.469000",
          "153440.274000",
          "153440.878000",
          "153441.620000",
          "153442.327000",
          "153443.046000",
          "153443.737000",
          "153444.450000",
          "153445.129000",
          "153445.853000",
          "153446.544000",
          "153447.337000",
          "153447.959000",
          "153448.634000",
          "153449.374000",
          "153450.025000",
          "153450.755000",
          "153451.450000",
          "153452.186000",
          "153452.883000",
          "153453.567000",
          "153454.257000",
          "153454.988000",
          "153455.668000",
          "153456.398000",
          "153457.106000",
          "153457.796000",
          "153458.498000",
          "153459.251000",
          "153459.884000",
          "153500.632000",
          "153501.282000",
          "153502.025000",
          "153502.681000",
          "153503.382000",
          "153504.078000",
          "153504.797000",
          "153505.556000",
          "153506.275000",
          "153506.988000",
          "153507.633000",
          "153508.392000",
          "153509.054000",
          "153509.790000",
          "153510.451000",
          "153511.205000",
          "153511.855000",
          "153512.623000",
          "153513.288000",
          "153514.007000",
          "153514.669000",
          "153515.360000",
          "153516.050000",
          "153516.747000",
          "153517.459000",
          "153518.252000",
          "153518.915000",
          "153519.627000",
          "153520.312000",
          "153521.009000",
          "153521.704000",
          "153522.395000",
          "153523.102000",
          "153523.805000",
          "153524.569000",
          "153525.248000",
          "153525.990000",
          "153526.646000",
          "153527.408000",
          "153528.324000",
          "153529.316000",
          "153530.320000",
          "153531.329000",
          "153532.336000",
          "153533.323000",
          "153534.327000",
          "153535.330000",
          "153536.346000",
          "153537.333000",
          "153538.332000",
          "153539.319000",
          "153540.323000",
          "153541.327000",
          "153542.314000",
          "153543.324000",
          "153544.323000",
          "153545.326000",
          "153546.337000",
          "153547.352000",
          "153548.317000",
          "153549.315000",
          "153550.348000",
          "153551.324000",
          "153552.343000"
        ],
        "InstanceCreationTime": [
          "153329.970000",
          "153330.578000",
          "153331.349000",
          "153332.002000",
          "153332.731000",
          "153333.425000",
          "153334.122000",
          "153334.822000",
          "153335.493000",
          "153336.234000",
          "153336.882000",
          "153337.636000",
          "153338.349000",
          "153339.039000",
          "153339.796000",
          "153340.447000",
          "153341.295000",
          "153341.950000",
          "153342.708000",
          "153343.366000",
          "153344.113000",
          "153344.751000",
          "153345.518000",
          "153346.260000",
          "153346.984000",
          "153347.669000",
          "153348.476000",
          "153349.078000",
          "153349.854000",
          "153350.563000",
          "153351.263000",
          "153351.959000",
          "153352.604000",
          "153353.413000",
          "153354.038000",
          "153354.822000",
          "153355.499000",
          "153356.237000",
          "153356.916000",
          "153357.657000",
          "153358.308000",
          "153359.101000",
          "153359.768000",
          "153400.527000",
          "153401.218000",
          "153401.951000",
          "153402.592000",
          "153403.409000",
          "153404.085000",
          "153404.847000",
          "153405.514000",
          "153406.312000",
          "153406.963000",
          "153407.733000",
          "153408.366000",
          "153409.137000",
          "153409.787000",
          "153410.494000",
          "153411.287000",
          "153411.921000",
          "153412.603000",
          "153413.318000",
          "153414.004000",
          "153414.722000",
          "153415.400000",
          "153416.134000",
          "153416.810000",
          "153417.500000",
          "153418.236000",
          "153418.932000",
          "153419.657000",
          "153420.313000",
          "153421.056000",
          "153421.717000",
          "153422.442000",
          "153423.133000",
          "153423.834000",
          "153424.535000",
          "153425.271000",
          "153425.945000",
          "153426.658000",
          "153427.435000",
          "153428.097000",
          "153428.833000",
          "153429.495000",
          "153430.242000",
          "153430.899000",
          "153431.578000",
          "153432.285000",
          "153432.958000",
          "153433.695000",
          "153434.379000",
          "153435.109000",
          "153435.828000",
          "153436.576000",
          "153437.254000",
          "153438.020000",
          "153438.704000",
          "153439.469000",
          "153440.274000",
          "153440.878000",
          "153441.620000",
          "153442.327000",
          "153443.046000",
          "153443.737000",
          "153444.450000",
          "153445.129000",
          "153445.853000",
          "153446.544000",
          "153447.337000",
          "153447.959000",
          "153448.634000",
          "153449.374000",
          "153450.025000",
          "153450.755000",
          "153451.450000",
          "153452.186000",
          "153452.883000",
          "153453.567000",
          "153454.257000",
          "153454.988000",
          "153455.668000",
          "153456.398000",
          "153457.106000",
          "153457.796000",
          "153458.498000",
          "153459.251000",
          "153459.884000",
          "153500.632000",
          "153501.282000",
          "153502.025000",
          "153502.681000",
          "153503.382000",
          "153504.078000",
          "153504.797000",
          "153505.556000",
          "153506.275000",
          "153506.988000",
          "153507.633000",
          "153508.392000",
          "153509.054000",
          "153509.790000",
          "153510.451000",
          "153511.205000",
          "153511.855000",
          "153512.623000",
          "153513.288000",
          "153514.007000",
          "153514.669000",
          "153515.360000",
          "153516.050000",
          "153516.747000",
          "153517.459000",
          "153518.252000",
          "153518.915000",
          "153519.627000",
          "153520.312000",
          "153521.009000",
          "153521.704000",
          "153522.395000",
          "153523.102000",
          "153523.805000",
          "153524.569000",
          "153525.248000",
          "153525.990000",
          "153526.646000",
          "153527.408000",
          "153528.324000",
          "153529.316000",
          "153530.320000",
          "153531.329000",
          "153532.336000",
          "153533.323000",
          "153534.327000",
          "153535.330000",
          "153536.346000",
          "153537.333000",
          "153538.332000",
          "153539.319000",
          "153540.323000",
          "153541.327000",
          "153542.314000",
          "153543.324000",
          "153544.323000",
          "153545.326000",
          "153546.337000",
          "153547.352000",
          "153548.317000",
          "153549.315000",
          "153550.348000",
          "153551.324000",
          "153552.343000"
        ],
        "InstanceNumber": [
          1,
          2,
          3,
          4,
          5,
          6,
          7,
          8,
          9,
          10,
          11,
          12,
          13,
          14,
          15,
          16,
          17,
          18,
          19,
          20,
          21,
          22,
          23,
          24,
          25,
          26,
          27,
          28,
          29,
          30,
          31,
          32,
          33,
          34,
          35,
          36,
          37,
          38,
          39,
          40,
          41,
          42,
          43,
          44,
          45,
          46,
          47,
          48,
          49,
          50,
          51,
          52,
          53,
          54,
          55,
          56,
          57,
          58,
          59,
          60,
          61,
          62,
          63,
          64,
          65,
          66,
          67,
          68,
          69,
          70,
          71,
          72,
          73,
          74,
          75,
          76,
          77,
          78,
          79,
          80,
          81,
          82,
          83,
          84,
          85,
          86,
          87,
          88,
          89,
          90,
          91,
          92,
          93,
          94,
          95,
          96,
          97,
          98,
          99,
          100,
          101,
          102,
          103,
          104,
          105,
          106,
          107,
          108,
          109,
          110,
          111,
          112,
          113,
          114,
          115,
          116,
          117,
          118,
          119,
          120,
          121,
          122,
          123,
          124,
          125,
          126,
          127,
          128,
          129,
          130,
          131,
          132,
          133,
          134,
          135,
          136,
          137,
          138,
          139,
          140,
          141,
          142,
          143,
          144,
          145,
          146,
          147,
          148,
          149,
          150,
          151,
          152,
          153,
          154,
          155,
          156,
          157,
          158,
          159,
          160,
          161,
          162,
          163,
          164,
          165,
          166,
          167,
          168,
          169,
          170,
          171,
          172,
          173,
          174,
          175,
          176,
          177,
          178,
          179,
          180,
          181,
          182,
          183,
          184,
          185,
          186,
          187,
          188,
          189,
          190,
          191,
          192
        ],
        "LargestImagePixelValue": [
          38883,
          36925,
          36750,
          36161,
          36167,
          35508,
          35362,
          35404,
          35547,
          35318,
          35680,
          35728,
          35818,
          35706,
          35777,
          35989,
          35496,
          35300,
          35846,
          34774,
          35434,
          35689,
          35043,
          34983,
          35496,
          36314,
          35997,
          35157,
          36020,
          35969,
          35106,
          35740,
          35515,
          35199,
          35591,
          35425,
          35201,
          35287,
          35557,
          35590,
          35508,
          35377,
          35630,
          35983,
          35962,
          35452,
          35792,
          35269,
          35086,
          35530,
          35406,
          34946,
          35544,
          35032,
          35065,
          35621,
          35277,
          34876,
          35552,
          35146,
          35172,
          35804,
          35530,
          35529,
          35578,
          35392,
          34966,
          34844,
          35115,
          34722,
          34958,
          35234,
          35350,
          35148,
          35213,
          35266,
          35427,
          34431,
          35013,
          35468,
          35115,
