{
  "AcquisitionMatrixPE": 104,
  "AcquisitionNumber": 1,
  "AcquisitionTime": "12:42:58.807500",
  "BandwidthPerPixelPhaseEncode": 16.578,
  "BaseResolution": 104,
  "BodyPartExamined": "BRAIN",
  "ConsistencyInfo": "N4_VE11C_LATEST_20160120",
  "ConversionSoftware": "dcm2niix",
  "ConversionSoftwareVersion": "v1.0.20190902",
  "DerivedVendorReportedEchoSpacing": 0.000580009,
  "DeviceSerialNumber": "166018",
  "DwellTime": 2.1e-06,
  "EchoTime": 0.037,
  "EchoTrainLength": 104,
  "EffectiveEchoSpacing": 0.000580009,
  "FlipAngle": 68,
  "ImageComments": "Unaliased_MB6_PE3_LB",
  "ImageOrientationPatientDICOM": [0.998575, 0.0214317, 0.0488661, -0.00801724, 0.965659, -0.259688],
  "ImageType": [
    "ORIGINAL",
    "PRIMARY",
    "M",
    "MB",
    "ND",
    "MOSAIC"
],
  "ImagingFrequency": 123.191,
  "InPlanePhaseEncodingDirectionDICOM": "COL",
  "InstitutionAddress": "Washington_Place_6_NYC_NYC_US_10003",
  "InstitutionName": "NYU_Center_for_Brain_Imaging",
  "InstitutionalDepartmentName": "Department",
  "MRAcquisitionType": "2D",
  "MagneticFieldStrength": 3,
  "Manufacturer": "Siemens",
  "ManufacturersModelName": "Prisma",
  "Modality": "MR",
  "MultibandAccelerationFactor": 6,
  "PartialFourier": 1,
  "PatientPosition": "HFS",
  "PercentPhaseFOV": 100,
  "PhaseEncodingDirection": "j",
  "PhaseEncodingSteps": 104,
  "PhaseResolution": 1,
  "PixelBandwidth": 2290,
  "ProcedureStepDescription": "Investigators_Winawer",
  "ProtocolName": "cmrr_mbepi_s6_2mm_66sl_PA_task-prf",
  "PulseSequenceDetails": "%CustomerSeq%_cmrr_mbep2d_bold",
  "ReceiveCoilActiveElements": "HC1-7",
  "ReceiveCoilName": "HeadNeck_64",
  "ReconMatrixPE": 104,
  "RepetitionTime": 1,
  "SAR": 0.0589005,
  "ScanOptions": "FS",
  "ScanningSequence": "EP",
  "SequenceName": "epfid2d1_104",
  "SequenceVariant": "SK_SS",
  "SeriesDescription": "cmrr_mbepi_s6_2mm_66sl_PA_task-prf",
  "SeriesNumber": 18,
  "ShimSetting": [257, -12607, -8498, 451, -21, 8, -133, -44],
  "SliceThickness": 2,
  "SliceTiming": [0, 0.535, 0.09, 0.625, 0.1775, 0.7125, 0.2675, 0.8025, 0.3575, 0.8925, 0.445, 0, 0.535, 0.09, 0.625, 0.1775, 0.7125, 0.2675, 0.8025, 0.3575, 0.8925, 0.445, 0, 0.535, 0.09, 0.625, 0.1775, 0.7125, 0.2675, 0.8025, 0.3575, 0.8925, 0.445, 0, 0.535, 0.09, 0.625, 0.1775, 0.7125, 0.2675, 0.8025, 0.3575, 0.8925, 0.445, 0, 0.535, 0.09, 0.625, 0.1775, 0.7125, 0.2675, 0.8025, 0.3575, 0.8925, 0.445, 0, 0.535, 0.09, 0.625, 0.1775, 0.7125, 0.2675, 0.8025, 0.3575, 0.8925, 0.445],
  "SoftwareVersions": "syngo_MR_E11",
  "SpacingBetweenSlices": 2,
  "StationName": "AWP166018",
  "TaskName": "prf",
  "TotalReadoutTime": 0.0597409,
  "TxRefAmp": 203.508,
  "WipMemBlock": "56e11567-37a0-4568-b0e3-73528f610b4e||Sequence: R016 ve11c/master r/8780670; Nov 27 2017 15:05:12 by eja",
  "dcmmeta_affine": [
    [-1.9971507787704468, -0.016034480184316635, 0.10550722479820251, 107.01654815673828],
    [-0.04286348447203636, 1.9313186407089233, -0.5178521871566772, -67.95065307617188],
    [0.0977322980761528, 0.5193756818771362, 1.9289108514785767, -81.57173919677734],
    [0.0, 0.0, 0.0, 1.0]
],
  "dcmmeta_reorient_transform": [
    [0.0, -1.0, 0.0, 103.0],
    [1.0, 0.0, 0.0, 0.0],
    [0.0, 0.0, 1.0, 0.0],
    [0.0, 0.0, 0.0, 1.0]
],
  "dcmmeta_shape": [104, 104, 66, 192],
  "dcmmeta_slice_dim": 2,
  "dcmmeta_version": 0.6,
  "global": {
    "const": {
      "AccessionNumber": "jpvhv9d1",
      "AcquisitionMatrix": [104, 0, 0, 104],
      "AngioFlag": "N",
      "BitsAllocated": 16,
      "BitsStored": 16,
      "BodyPartExamined": "BRAIN",
      "Columns": 936,
      "EchoNumbers": 1,
      "EchoTime": 37.0,
      "EchoTrainLength": 104,
      "FlipAngle": 68.0,
      "HighBit": 15,
      "ImageOrientationPatient": [0.99857537523322, 0.02143174273425, 0.04886614759947, -0.0080172399129, 0.96565933540112, -0.2596878353271],
      "ImagePositionPatient": [-929.50936805185, -952.23494665973, 147.327600537],
      "ImageType": [
        "ORIGINAL",
        "PRIMARY",
        "M",
        "MB",
        "ND",
        "MOSAIC"
],
      "ImagedNucleus": "1H",
      "ImagingFrequency": 123.190849,
      "InPlanePhaseEncodingDirection": "COL",
      "MRAcquisitionType": "2D",
      "MagneticFieldStrength": 3.0,
      "Manufacturer": "SIEMENS",
      "ManufacturerModelName": "Prisma",
      "Modality": "MR",
      "NumberOfAverages": 1.0,
      "NumberOfPhaseEncodingSteps": 104,
      "PercentPhaseFieldOfView": 100.0,
      "PercentSampling": 100.0,
      "PerformedProcedureStepStartTime": "120926.853000",
      "PhotometricInterpretation": "MONOCHROME2",
      "PixelBandwidth": 2290.0,
      "PixelRepresentation": 0,
      "PixelSpacing": [2.0, 2.0],
      "ProtocolName": "cmrr_mbepi_s6_2mm_66sl_PA_task-prf",
      "RepetitionTime": 1000.0,
      "Rows": 936,
      "SAR": 0.05890051524164,
      "SamplesPerPixel": 1,
      "ScanOptions": "FS",
      "ScanningSequence": "EP",
      "SequenceName": "epfid2d1_104",
      "SequenceVariant": [
        "SK",
        "SS"
],
      "SeriesDescription": "cmrr_mbepi_s6_2mm_66sl_PA_task-prf",
      "SeriesNumber": 18,
      "SeriesTime": "124355.578000",
      "SliceLocation": -55.432599595336,
      "SliceThickness": 2.0,
      "SmallestImagePixelValue": 0,
      "SoftwareVersions": "syngo MR E11",
      "SpacingBetweenSlices": 1.9999999695103,
      "SpecificCharacterSet": "ISO_IR 100",
      "StudyID": "1",
      "StudyTime": "120926.714000",
      "TransmitCoilName": "Body",
      "VariableFlipAngleFlag": "N",
      "WindowCenterWidthExplanation": "Algo1",
      "dBdt": 0.0},
    "slices": {}
  },
  "time": {
    "samples": {
      "AcquisitionNumber": [1, 2, 3, 4, 5, 6, 7, 8, 9, 10, 11, 12, 13, 14, 15, 16, 17, 18, 19, 20, 21, 22, 23, 24, 25, 26, 27, 28, 29, 30, 31, 32, 33, 34, 35, 36, 37, 38, 39, 40, 41, 42, 43, 44, 45, 46, 47, 48, 49, 50, 51, 52, 53, 54, 55, 56, 57, 58, 59, 60, 61, 62, 63, 64, 65, 66, 67, 68, 69, 70, 71, 72, 73, 74, 75, 76, 77, 78, 79, 80, 81, 82, 83, 84, 85, 86, 87, 88, 89, 90, 91, 92, 93, 94, 95, 96, 97, 98, 99, 100, 101, 102, 103, 104, 105, 106, 107, 108, 109, 110, 111, 112, 113, 114, 115, 116, 117, 118, 119, 120, 121, 122, 123, 124, 125, 126, 127, 128, 129, 130, 131, 132, 133, 134, 135, 136, 137, 138, 139, 140, 141, 142, 143, 144, 145, 146, 147, 148, 149, 150, 151, 152, 153, 154, 155, 156, 157, 158, 159, 160, 161, 162, 163, 164, 165, 166, 167, 168, 169, 170, 171, 172, 173, 174, 175, 176, 177, 178, 179, 180, 181, 182, 183, 184, 185, 186, 187, 188, 189, 190, 191, 192],
      "AcquisitionTime": ["124258.807500", "124259.807500", "124300.807500", "124301.807500", "124302.807500", "124303.807500", "124304.807500", "124305.807500", "124306.807500", "124307.807500", "124308.807500", "124309.807500", "124310.807500", "124311.807500", "124312.807500", "124313.807500", "124314.807500", "124315.807500", "124316.807500", "124317.807500", "124318.807500", "124319.807500", "124320.807500", "124321.807500", "124322.807500", "124323.807500", "124324.807500", "124325.807500", "124326.807500", "124327.807500", "124328.807500", "124329.807500", "124330.807500", "124331.807500", "124332.807500", "124333.807500", "124334.807500", "124335.807500", "124336.807500", "124337.807500", "124338.807500", "124339.807500", "124340.807500", "124341.807500", "124342.807500", "124343.807500", "124344.807500", "124345.807500", "124346.807500", "124347.807500", "124348.807500", "124349.807500", "124350.807500", "124351.807500", "124352.807500", "124353.807500", "124354.807500", "124355.807500", "124356.807500", "124357.807500", "124358.807500", "124359.807500", "124400.807500", "124401.807500", "124402.807500", "124403.807500", "124404.807500", "124405.807500", "124406.807500", "124407.807500", "124408.807500", "124409.807500", "124410.807500", "124411.807500", "124412.807500", "124413.807500", "124414.807500", "124415.807500", "124416.807500", "124417.807500", "124418.807500", "124419.807500", "124420.807500", "124421.807500", "124422.807500", "124423.807500", "124424.807500", "124425.807500", "124426.807500", "124427.807500", "124428.807500", "124429.807500", "124430.807500", "124431.807500", "124432.807500", "124433.807500", "124434.807500", "124435.807500", "124436.807500", "124437.807500", "124438.807500", "124439.807500", "124440.807500", "124441.807500", "124442.807500", "124443.807500", "124444.807500", "124445.807500", "124446.807500", "124447.807500", "124448.807500", "124449.807500", "124450.807500", "124451.807500", "124452.807500", "124453.807500", "124454.807500", "124455.807500", "124456.807500", "124457.807500", "124458.807500", "124459.807500", "124500.807500", "124501.807500", "124502.807500", "124503.807500", "124504.807500", "124505.807500", "124506.807500", "124507.807500", "124508.807500", "124509.807500", "124510.807500", "124511.807500", "124512.807500", "124513.807500", "124514.807500", "124515.807500", "124516.807500", "124517.807500", "124518.807500", "124519.807500", "124520.807500", "124521.807500", "124522.807500", "124523.807500", "124524.807500", "124525.807500", "124526.807500", "124527.807500", "124528.807500", "124529.807500", "124530.807500", "124531.807500", "124532.807500", "124533.807500", "124534.807500", "124535.807500", "124536.807500", "124537.807500", "124538.807500", "124539.807500", "124540.807500", "124541.807500", "124542.807500", "124543.807500", "124544.807500", "124545.807500", "124546.807500", "124547.807500", "124548.807500", "124549.807500", "124550.807500", "124551.807500", "124552.807500", "124553.807500", "124554.807500", "124555.807500", "124556.807500", "124557.807500", "124558.807500", "124559.807500", "124600.807500", "124601.807500", "124602.807500", "124603.807500", "124604.807500", "124605.807500", "124606.807500", "124607.807500", "124608.807500", "124609.807500"],
      "ContentTime": ["124355.581000", "124355.600000", "124355.603000", "124355.606000", "124415.551000", "124415.554000", "124415.557000", "124415.560000", "124415.562000", "124415.565000", "124415.568000", "124415.571000", "124415.574000", "124415.577000", "124415.580000", "124415.583000", "124415.585000", "124415.588000", "124415.599000", "124415.601000", "124415.604000", "124415.607000", "124415.610000", "124415.613000", "124415.616000", "124415.619000", "124415.621000", "124415.624000", "124415.627000", "124415.630000", "124415.633000", "124415.636000", "124435.551000", "124435.554000", "124435.557000", "124435.560000", "124435.563000", "124435.565000", "124435.568000", "124435.571000", "124435.574000", "124435.577000", "124435.580000", "124435.583000", "124435.586000", "124435.588000", "124435.591000", "124435.594000", "124435.597000", "124435.609000", "124435.612000", "124435.615000", "124435.617000", "124435.620000", "124435.623000", "124435.626000", "124435.629000", "124435.632000", "124435.635000", "124435.637000", "124455.550000", "124455.553000", "124455.556000", "124455.559000", "124455.562000", "124455.565000", "124455.568000", "124455.571000", "124455.574000", "124455.577000", "124455.580000", "124455.583000", "124455.594000", "124455.597000", "124455.600000", "124455.603000", "124455.606000", "124455.609000", "124455.612000", "124455.615000", "124455.617000", "124455.620000", "124455.623000", "124455.626000", "124455.629000", "124455.632000", "124455.635000", "124455.637000", "124515.550000", "124515.553000", "124515.556000", "124515.559000", "124515.561000", "124515.564000", "124515.567000", "124515.570000", "124515.573000", "124515.576000", "124515.579000", "124515.582000", "124515.585000", "124515.587000", "124515.590000", "124515.593000", "124515.596000", "124515.599000", "124515.602000", "124515.605000", "124515.608000", "124515.610000", "124515.613000", "124515.616000", "124515.619000", "124515.622000", "124515.625000", "124515.628000", "124515.630000", "124535.550000", "124535.553000", "124535.556000", "124535.559000", "124535.561000", "124535.564000", "124535.567000", "124535.570000", "124535.573000", "124535.576000", "124535.579000", "124535.582000", "124535.585000", "124535.587000", "124535.590000", "124535.593000", "124535.596000", "124535.599000", "124535.602000", "124535.605000", "124535.608000", "124535.611000", "124535.614000", "124535.617000", "124535.620000", "124535.622000", "124535.625000", "124535.628000", "124555.550000", "124555.553000", "124555.556000", "124555.559000", "124555.562000", "124555.565000", "124555.567000", "124555.570000", "124555.573000", "124555.576000", "124555.579000", "124555.582000", "124555.593000", "124555.596000", "124555.599000", "124555.602000", "124555.604000", "124555.607000", "124555.610000", "124555.613000", "124555.616000", "124555.619000", "124555.622000", "124555.624000", "124555.627000", "124555.630000", "124555.633000", "124555.636000", "124611.081000", "124611.084000", "124611.087000", "124611.089000", "124611.092000", "124611.095000", "124611.098000", "124611.101000", "124611.104000", "124611.107000", "124611.110000", "124611.112000", "124611.115000", "124611.118000", "124611.121000", "124611.124000", "124611.127000", "124611.130000", "124611.132000"],
      "InstanceCreationTime": ["124355.581000", "124355.600000", "124355.603000", "124355.606000", "124415.551000", "124415.554000", "124415.557000", "124415.560000", "124415.562000", "124415.565000", "124415.568000", "124415.571000", "124415.574000", "124415.577000", "124415.580000", "124415.583000", "124415.585000", "124415.588000", "124415.599000", "124415.601000", "124415.604000", "124415.607000", "124415.610000", "124415.613000", "124415.616000", "124415.619000", "124415.621000", "124415.624000", "124415.627000", "124415.630000", "124415.633000", "124415.636000", "124435.551000", "124435.554000", "124435.557000", "124435.560000", "124435.563000", "124435.565000", "124435.568000", "124435.571000", "124435.574000", "124435.577000", "124435.580000", "124435.583000", "124435.586000", "124435.588000", "124435.591000", "124435.594000", "124435.597000", "124435.609000", "124435.612000", "124435.615000", "124435.617000", "124435.620000", "124435.623000", "124435.626000", "124435.629000", "124435.632000", "124435.635000", "124435.637000", "124455.550000", "124455.553000", "124455.556000", "124455.559000", "124455.562000", "124455.565000", "124455.568000", "124455.571000", "124455.574000", "124455.577000", "124455.580000", "124455.583000", "124455.594000", "124455.597000", "124455.600000", "124455.603000", "124455.606000", "124455.609000", "124455.612000", "124455.615000", "124455.617000", "124455.620000", "124455.623000", "124455.626000", "124455.629000", "124455.632000", "124455.635000", "124455.637000", "124515.550000", "124515.553000", "124515.556000", "124515.559000", "124515.561000", "124515.564000", "124515.567000", "124515.570000", "124515.573000", "124515.576000", "124515.579000", "124515.582000", "124515.585000", "124515.587000", "124515.590000", "124515.593000", "124515.596000", "124515.599000", "124515.602000", "124515.605000", "124515.608000", "124515.610000", "124515.613000", "124515.616000", "124515.619000", "124515.622000", "124515.625000", "124515.628000", "124515.630000", "124535.550000", "124535.553000", "124535.556000", "124535.559000", "124535.561000", "124535.564000", "124535.567000", "124535.570000", "124535.573000", "124535.576000", "124535.579000", "124535.582000", "124535.585000", "124535.587000", "124535.590000", "124535.593000", "124535.596000", "124535.599000", "124535.602000", "124535.605000", "124535.608000", "124535.611000", "124535.614000", "124535.617000", "124535.620000", "124535.622000", "124535.625000", "124535.628000", "124555.550000", "124555.553000", "124555.556000", "124555.559000", "124555.562000", "124555.565000", "124555.567000", "124555.570000", "124555.573000", "124555.576000", "124555.579000", "124555.582000", "124555.593000", "124555.596000", "124555.599000", "124555.602000", "124555.604000", "124555.607000", "124555.610000", "124555.613000", "124555.616000", "124555.619000", "124555.622000", "124555.624000", "124555.627000", "124555.630000", "124555.633000", "124555.636000", "124611.081000", "124611.084000", "124611.087000", "124611.089000", "124611.092000", "124611.095000", "124611.098000", "124611.101000", "124611.104000", "124611.107000", "124611.110000", "124611.112000", "124611.115000", "124611.118000", "124611.121000", "124611.124000", "124611.127000", "124611.130000", "124611.132000"],
      "InstanceNumber": [1, 2, 3, 4, 5, 6, 7, 8, 9, 10, 11, 12, 13, 14, 15, 16, 17, 18, 19, 20, 21, 22, 23, 24, 25, 26, 27, 28, 29, 30, 31, 32, 33, 34, 35, 36, 37, 38, 39, 40, 41, 42, 43, 44, 45, 46, 47, 48, 49, 50, 51, 52, 53, 54, 55, 56, 57, 58, 59, 60, 61, 62, 63, 64, 65, 66, 67, 68, 69, 70, 71, 72, 73, 74, 75, 76, 77, 78, 79, 80, 81, 82, 83, 84, 85, 86, 87, 88, 89, 90, 91, 92, 93, 94, 95, 96, 97, 98, 99, 100, 101, 102, 103, 104, 105, 106, 107, 108, 109, 110, 111, 112, 113, 114, 115, 116, 117, 118, 119, 120, 121, 122, 123, 124, 125, 126, 127, 128, 129, 130, 131, 132, 133, 134, 135, 136, 137, 138, 139, 140, 141, 142, 143, 144, 145, 146, 147, 148, 149, 150, 151, 152, 153, 154, 155, 156, 157, 158, 159, 160, 161, 162, 163, 164, 165, 166, 167, 168, 169, 170, 171, 172, 173, 174, 175, 176, 177, 178, 179, 180, 181, 182, 183, 184, 185, 186, 187, 188, 189, 190, 191, 192],
      "LargestImagePixelValue": [31981, 30246, 30398, 30275, 30414, 30249, 29744, 29923, 30054, 30734, 30355, 29822, 29891, 30096, 30072, 30525, 30553, 30312, 30673, 30177, 30946, 31436, 31800, 31458, 31466, 30761, 30209, 30418, 30578, 30759, 32124, 32398, 31598, 31875, 31859, 31419, 30764, 30182, 30498, 30996, 31251, 30580, 30118, 30161, 29887, 29772, 30299, 29961, 29954, 29993, 30397, 30200, 30018, 29955, 30195, 29974, 30208, 30346, 30062, 30778, 30516, 30454, 31102, 31767, 32443, 31893, 31002, 30737, 30357, 30439, 30832, 30585, 30440, 30797, 30980, 31139, 31362, 30827, 30490, 30602, 31065, 31481, 31743, 31045, 31308, 31347, 31176, 30796, 30765, 30815, 30631, 30900, 30768, 30704, 30999, 30969, 30423, 30168, 30890, 30765, 31572, 30831, 31777, 31501, 30831, 30610, 30823, 30589, 30619, 30903, 31121, 30978, 30385, 30324, 29944, 30163, 30814, 30635, 30551, 30852, 30410, 30323, 30525, 30512, 30418, 30164, 30345, 30451, 30302, 30338, 30267, 30090, 30310, 30209, 29850, 30400, 30587, 31233, 30891, 30469, 30083, 30360, 30534, 31012, 30577, 30804, 30838, 31316, 31366, 31338, 31842, 31549, 31125, 31153, 30675, 30971, 30427, 30494, 30558, 30469, 30174, 29967, 30359, 30272, 30355, 30501, 30351, 30323, 30582, 30825, 30394, 30701, 30934, 30951, 30639, 30674, 31332, 31521, 30750, 30974, 30642, 30171, 30525, 30271, 30722, 30895, 30744, 31693, 31211, 31877, 31620, 31744],
      "WindowCenter": [9570.0, 9501.0, 9524.0, 9537.0, 9528.0, 9513.0, 9506.0, 9497.0, 9482.0, 9470.0, 9439.0, 9416.0, 9415.0, 9427.0, 9428.0, 9435.0, 9436.0, 9449.0, 9453.0, 9462.0, 9486.0, 9503.0, 9504.0, 9504.0, 9498.0, 9491.0, 9481.0, 9487.0, 9500.0, 9525.0, 9564.0, 9587.0, 9585.0, 9568.0, 9557.0, 9535.0, 9515.0, 9508.0, 9514.0, 9530.0, 9541.0, 9527.0, 9509.0, 9508.0, 9511.0, 9510.0, 9508.0, 9492.0, 9494.0, 9491.0, 9497.0, 9500.0, 9502.0, 9500.0, 9500.0, 9500.0, 9507.0, 9514.0, 9518.0, 9544.0, 9548.0, 9556.0, 9577.0, 9602.0, 9616.0, 9594.0, 9568.0, 9548.0, 9514.0, 9503.0, 9490.0, 9473.0, 9457.0, 9463.0, 9468.0, 9483.0, 9505.0, 9504.0, 9498.0, 9506.0, 9512.0, 9520.0, 9534.0, 9526.0, 9535.0, 9536.0, 9538.0, 9547.0, 9548.0, 9533.0, 9531.0, 9528.0, 9536.0, 9545.0, 9551.0, 9543.0, 9531.0, 9517.0, 9526.0, 9518.0, 9539.0, 9545.0, 9547.0, 9524.0, 9502.0, 9493.0, 9501.0, 9501.0, 9501.0, 9498.0, 9493.0, 9491.0, 9478.0, 9477.0, 9478.0, 9480.0, 9507.0, 9525.0, 9538.0, 9546.0, 9539.0, 9541.0, 9541.0, 9541.0, 9539.0, 9527.0, 9532.0, 9533.0, 9531.0, 9522.0, 9516.0, 9507.0, 9499.0, 9507.0, 9510.0, 9540.0, 9563.0, 9577.0, 9566.0, 9553.0, 9543.0, 9539.0, 9530.0, 9526.0, 9553.0, 9540.0, 9529.0, 9526.0, 9515.0, 9509.0, 9505.0, 9489.0, 9475.0, 9473.0, 9461.0, 9466.0, 9453.0, 9453.0, 9461.0, 9478.0, 9496.0, 9513.0, 9521.0, 9530.0, 9531.0, 9531.0, 9531.0, 9532.0, 9545.0, 9539.0, 9547.0, 9548.0, 9562.0, 9553.0, 9554.0, 9555.0, 9568.0, 9569.0, 9557.0, 9549.0, 9534.0, 9511.0, 9516.0, 9524.0, 9538.0, 9545.0, 9539.0, 9550.0, 9542.0, 9555.0, 9544.0, 9533.0],
      "WindowWidth": [20378.0, 20222.0, 20267.0, 20298.0, 20276.0, 20242.0, 20226.0, 20204.0, 20174.0, 20143.0, 20080.0, 20032.0, 20031.0, 20056.0, 20061.0, 20075.0, 20078.0, 20101.0, 20109.0, 20134.0, 20183.0, 20216.0, 20218.0, 20216.0, 20204.0, 20190.0, 20174.0, 20185.0, 20211.0, 20269.0, 20350.0, 20400.0, 20398.0, 20359.0, 20333.0, 20285.0, 20248.0, 20235.0, 20249.0, 20286.0, 20302.0, 20274.0, 20240.0, 20236.0, 20244.0, 20239.0, 20231.0, 20197.0, 20200.0, 20194.0, 20207.0, 20217.0, 20224.0, 20219.0, 20221.0, 20220.0, 20233.0, 20246.0, 20259.0, 20309.0, 20322.0, 20344.0, 20388.0, 20442.0, 20470.0, 20419.0, 20368.0, 20326.0, 20252.0, 20225.0, 20191.0, 20153.0, 20118.0, 20131.0, 20140.0, 20171.0, 20221.0, 20222.0, 20212.0, 20227.0, 20238.0, 20257.0, 20287.0, 20271.0, 20289.0, 20294.0, 20301.0, 20322.0, 20327.0, 20292.0, 20286.0, 20274.0, 20296.0, 20312.0, 20324.0, 20305.0, 20285.0, 20255.0, 20270.0, 20256.0, 20298.0, 20315.0, 20315.0, 20262.0, 20216.0, 20200.0, 20216.0, 20215.0, 20215.0, 20210.0, 20201.0, 20195.0, 20169.0, 20164.0, 20168.0, 20175.0, 20229.0, 20270.0, 20304.0, 20320.0, 20303.0, 20310.0, 20307.0, 20309.0, 20303.0, 20279.0, 20286.0, 20290.0, 20283.0, 20264.0, 20251.0, 20230.0, 20215.0, 20230.0, 20245.0, 20309.0, 20358.0, 20384.0, 20366.0, 20337.0, 20313.0, 20302.0, 20286.0, 20277.0, 20333.0, 20304.0, 20275.0, 20267.0, 20241.0, 20228.0, 20217.0, 20186.0, 20159.0, 20153.0, 20134.0, 20140.0, 20115.0, 20114.0, 20133.0, 20173.0, 20213.0, 20250.0, 20269.0, 20286.0, 20288.0, 20287.0, 20287.0, 20288.0, 20313.0, 20303.0, 20321.0, 20324.0, 20349.0, 20330.0, 20337.0, 20339.0, 20363.0, 20364.0, 20346.0, 20326.0, 20292.0, 20245.0, 20254.0, 20274.0, 20303.0, 20319.0, 20305.0, 20325.0, 20310.0, 20334.0, 20311.0, 20282.0]
    },
    "slices": {}
  },
  "NumberOfVolumes": 192
}