{
  "aor": 0.0009421354166666666,
  "aqi": 0.00563400859375,
  "bids_meta": {
    "AcquisitionMatrixPE": 104,
    "AcquisitionNumber": 1,
    "AcquisitionTime": "10:32:23.462500",
    "BandwidthPerPixelPhaseEncode": 16.578,
    "BaseResolution": 104,
    "BodyPartExamined": "BRAIN",
    "CogAtlasID": "TODO",
    "ConsistencyInfo": "N4_VE11C_LATEST_20160120",
    "ConversionSoftware": "dcm2niix",
    "ConversionSoftwareVersion": "v1.0.20190902",
    "DerivedVendorReportedEchoSpacing": 0.000580009,
    "DeviceSerialNumber": "166018",
    "DwellTime": 2.1e-06,
    "EchoTime": 0.037,
    "EchoTrainLength": 104,
    "EffectiveEchoSpacing": 0.000580009,
    "FlipAngle": 68,
    "ImageComments": "Unaliased_MB6_PE3_LB",
    "ImageOrientationPatientDICOM": [
      0.993289,
      0.109598,
      0.036937,
      -0.0956429,
      0.957967,
      -0.270464
    ],
    "ImageType": [
      "ORIGINAL",
      "PRIMARY",
      "M",
      "MB",
      "ND",
      "MOSAIC"
    ],
    "ImagingFrequency": 123.191,
    "InPlanePhaseEncodingDirectionDICOM": "COL",
    "InstitutionAddress": "Washington_Place_6_NYC_NYC_US_10003",
    "InstitutionName": "NYU_-_CBI",
    "InstitutionalDepartmentName": "Department",
    "MRAcquisitionType": "2D",
    "MagneticFieldStrength": 3,
    "Manufacturer": "Siemens",
    "ManufacturersModelName": "Prisma",
    "Modality": "MR",
    "MultibandAccelerationFactor": 6,
    "NumberOfVolumes": 192,
    "PartialFourier": 1,
    "PatientPosition": "HFS",
    "PercentPhaseFOV": 100,
    "PhaseEncodingDirection": "j",
    "PhaseEncodingSteps": 104,
    "PhaseResolution": 1,
    "PixelBandwidth": 2290,
    "ProcedureStepDescription": "Investigators_Winawer",
    "ProtocolName": "cmrr_mbepi_s6_2mm_66sl_PA_task-prf",
    "PulseSequenceDetails": "%CustomerSeq%_cmrr_mbep2d_bold",
    "ReceiveCoilActiveElements": "HC1-7",
    "ReceiveCoilName": "HeadNeck_64",
    "ReconMatrixPE": 104,
    "RepetitionTime": 1,
    "SAR": 0.062376,
    "ScanOptions": "FS",
    "ScanningSequence": "EP",
    "SequenceName": "epfid2d1_104",
    "SequenceVariant": "SK_SS",
    "SeriesDescription": "cmrr_mbepi_s6_2mm_66sl_PA_task-prf",
    "SeriesNumber": 12,
    "ShimSetting": [
      272,
      -12573,
      -8445,
      481,
      -12,
      -101,
      -67,
      -2
    ],
    "SliceThickness": 2,
    "SliceTiming": [
      0,
      0.535,
      0.09,
      0.625,
      0.1775,
      0.7125,
      0.2675,
      0.8025,
      0.3575,
      0.89,
      0.445,
      0,
      0.535,
      0.09,
      0.625,
      0.1775,
      0.7125,
      0.2675,
      0.8025,
      0.3575,
      0.89,
      0.445,
      0,
      0.535,
      0.09,
      0.625,
      0.1775,
      0.7125,
      0.2675,
      0.8025,
      0.3575,
      0.89,
      0.445,
      0,
      0.535,
      0.09,
      0.625,
      0.1775,
      0.7125,
      0.2675,
      0.8025,
      0.3575,
      0.89,
      0.445,
      0,
      0.535,
      0.09,
      0.625,
      0.1775,
      0.7125,
      0.2675,
      0.8025,
      0.3575,
      0.89,
      0.445,
      0,
      0.535,
      0.09,
      0.625,
      0.1775,
      0.7125,
      0.2675,
      0.8025,
      0.3575,
      0.89,
      0.445
    ],
    "SoftwareVersions": "syngo_MR_E11",
    "SpacingBetweenSlices": 2,
    "StationName": "AWP166018",
    "TaskName": "prf",
    "TotalReadoutTime": 0.0597409,
    "TxRefAmp": 207.746,
    "WipMemBlock": "a6a7f098-c453-4aa7-b3b4-6b6e67c4d097||Sequence: R016 ve11c/master r/8780670; Nov 27 2017 15:05:12 by eja",
    "acq_id": "PA",
    "dataset": "unknown",
    "dcmmeta_affine": [
      [
        -1.9865789413452148,
        -0.19128571450710297,
        0.13005344569683075,
        119.66618347167969
      ],
      [
        -0.21919570863246918,
        1.9159349203109741,
        -0.5302327871322632,
        -47.2097282409668
      ],
      [
        0.07387398928403854,
        0.5409281849861145,
        1.9240424633026123,
        -72.72578430175781
      ],
      [
        0.0,
        0.0,
        0.0,
        1.0
      ]
    ],
    "dcmmeta_reorient_transform": [
      [
        0.0,
        -1.0,
        0.0,
        103.0
      ],
      [
        1.0,
        0.0,
        0.0,
        0.0
      ],
      [
        0.0,
        0.0,
        1.0,
        0.0
      ],
      [
        0.0,
        0.0,
        0.0,
        1.0
      ]
    ],
    "dcmmeta_shape": [
      104,
      104,
      66,
      192
    ],
    "dcmmeta_slice_dim": 2,
    "dcmmeta_version": 0.6,
    "global": {
      "const": {
        "AccessionNumber": "JUK00BTQ",
        "AcquisitionMatrix": [
          104,
          0,
          0,
          104
        ],
        "AngioFlag": "N",
        "BitsAllocated": 16,
        "BitsStored": 16,
        "BodyPartExamined": "BRAIN",
        "Columns": 936,
        "EchoNumbers": 1,
        "EchoTime": 37.0,
        "EchoTrainLength": 104,
        "FlipAngle": 68.0,
        "HighBit": 15,
        "ImageOrientationPatient": [
          0.99328946855882,
          0.10959785617072,
          0.03693699463853,
          -0.0956428608861,
          0.957967438371,
          -0.2704641014672
        ],
        "ImagePositionPatient": [
          -846.80573146119,
          -1038.3458901661,
          177.28437110658
        ],
        "ImageType": [
          "ORIGINAL",
          "PRIMARY",
          "M",
          "MB",
          "ND",
          "MOSAIC"
        ],
        "ImagedNucleus": "1H",
        "ImagingFrequency": 123.191019,
        "InPlanePhaseEncodingDirection": "COL",
        "MRAcquisitionType": "2D",
        "MagneticFieldStrength": 3.0,
        "Manufacturer": "SIEMENS",
        "ManufacturerModelName": "Prisma",
        "Modality": "MR",
        "NumberOfAverages": 1.0,
        "NumberOfPhaseEncodingSteps": 104,
        "PercentPhaseFieldOfView": 100.0,
        "PercentSampling": 100.0,
        "PerformedProcedureStepStartTime": "101139.639000",
        "PhotometricInterpretation": "MONOCHROME2",
        "PixelBandwidth": 2290.0,
        "PixelRepresentation": 0,
        "PixelSpacing": [
          2.0,
          2.0
        ],
        "ProtocolName": "cmrr_mbepi_s6_2mm_66sl_PA_task-prf",
        "RepetitionTime": 1000.0,
        "Rows": 936,
        "SAR": 0.06237597445712,
        "SamplesPerPixel": 1,
        "ScanOptions": "FS",
        "ScanningSequence": "EP",
        "SequenceName": "epfid2d1_104",
        "SequenceVariant": [
          "SK",
          "SS"
        ],
        "SeriesDescription": "cmrr_mbepi_s6_2mm_66sl_PA_task-prf",
        "SeriesNumber": 12,
        "SeriesTime": "103323.958000",
        "SliceLocation": -49.666178043029,
        "SliceThickness": 2.0,
        "SmallestImagePixelValue": 0,
        "SoftwareVersions": "syngo MR E11",
        "SpacingBetweenSlices": 2.0000000699906,
        "SpecificCharacterSet": "ISO_IR 100",
        "StudyID": "1",
        "StudyTime": "101139.529000",
        "TransmitCoilName": "Body",
        "VariableFlipAngleFlag": "N",
        "WindowCenterWidthExplanation": "Algo1",
        "dBdt": 0.0
      },
      "slices": {}
    },
    "modality": "bold",
    "run_id": 3,
    "session_id": "nyu3t01",
    "subject_id": "wlsubj083",
    "task_id": "prf",
    "time": {
      "samples": {
        "AcquisitionNumber": [
          1,
          2,
          3,
          4,
          5,
          6,
          7,
          8,
          9,
          10,
          11,
          12,
          13,
          14,
          15,
          16,
          17,
          18,
          19,
          20,
          21,
          22,
          23,
          24,
          25,
          26,
          27,
          28,
          29,
          30,
          31,
          32,
          33,
          34,
          35,
          36,
          37,
          38,
          39,
          40,
          41,
          42,
          43,
          44,
          45,
          46,
          47,
          48,
          49,
          50,
          51,
          52,
          53,
          54,
          55,
          56,
          57,
          58,
          59,
          60,
          61,
          62,
          63,
          64,
          65,
          66,
          67,
          68,
          69,
          70,
          71,
          72,
          73,
          74,
          75,
          76,
          77,
          78,
          79,
          80,
          81,
          82,
          83,
          84,
          85,
          86,
          87,
          88,
          89,
          90,
          91,
          92,
          93,
          94,
          95,
          96,
          97,
          98,
          99,
          100,
          101,
          102,
          103,
          104,
          105,
          106,
          107,
          108,
          109,
          110,
          111,
          112,
          113,
          114,
          115,
          116,
          117,
          118,
          119,
          120,
          121,
          122,
          123,
          124,
          125,
          126,
          127,
          128,
          129,
          130,
          131,
          132,
          133,
          134,
          135,
          136,
          137,
          138,
          139,
          140,
          141,
          142,
          143,
          144,
          145,
          146,
          147,
          148,
          149,
          150,
          151,
          152,
          153,
          154,
          155,
          156,
          157,
          158,
          159,
          160,
          161,
          162,
          163,
          164,
          165,
          166,
          167,
          168,
          169,
          170,
          171,
          172,
          173,
          174,
          175,
          176,
          177,
          178,
          179,
          180,
          181,
          182,
          183,
          184,
          185,
          186,
          187,
          188,
          189,
          190,
          191,
          192
        ],
        "AcquisitionTime": [
          "103223.462500",
          "103224.462500",
          "103225.462500",
          "103226.462500",
          "103227.462500",
          "103228.462500",
          "103229.462500",
          "103230.462500",
          "103231.462500",
          "103232.462500",
          "103233.462500",
          "103234.462500",
          "103235.462500",
          "103236.462500",
          "103237.462500",
          "103238.462500",
          "103239.462500",
          "103240.462500",
          "103241.462500",
          "103242.462500",
          "103243.462500",
          "103244.462500",
          "103245.462500",
          "103246.462500",
          "103247.462500",
          "103248.462500",
          "103249.462500",
          "103250.462500",
          "103251.462500",
          "103252.462500",
          "103253.462500",
          "103254.462500",
          "103255.462500",
          "103256.462500",
          "103257.462500",
          "103258.462500",
          "103259.462500",
          "103300.462500",
          "103301.462500",
          "103302.462500",
          "103303.462500",
          "103304.462500",
          "103305.462500",
          "103306.462500",
          "103307.462500",
          "103308.462500",
          "103309.462500",
          "103310.462500",
          "103311.462500",
          "103312.462500",
          "103313.462500",
          "103314.462500",
          "103315.462500",
          "103316.462500",
          "103317.462500",
          "103318.462500",
          "103319.462500",
          "103320.462500",
          "103321.462500",
          "103322.462500",
          "103323.462500",
          "103324.462500",
          "103325.462500",
          "103326.462500",
          "103327.462500",
          "103328.462500",
          "103329.462500",
          "103330.462500",
          "103331.462500",
          "103332.462500",
          "103333.462500",
          "103334.462500",
          "103335.462500",
          "103336.462500",
          "103337.462500",
          "103338.462500",
          "103339.462500",
          "103340.462500",
          "103341.462500",
          "103342.462500",
          "103343.462500",
          "103344.462500",
          "103345.462500",
          "103346.462500",
          "103347.462500",
          "103348.462500",
          "103349.462500",
          "103350.462500",
          "103351.462500",
          "103352.462500",
          "103353.462500",
          "103354.462500",
          "103355.462500",
          "103356.462500",
          "103357.462500",
          "103358.462500",
          "103359.462500",
          "103400.462500",
          "103401.462500",
          "103402.462500",
          "103403.462500",
          "103404.462500",
          "103405.462500",
          "103406.462500",
          "103407.462500",
          "103408.462500",
          "103409.462500",
          "103410.462500",
          "103411.462500",
          "103412.462500",
          "103413.462500",
          "103414.462500",
          "103415.462500",
          "103416.462500",
          "103417.462500",
          "103418.462500",
          "103419.462500",
          "103420.462500",
          "103421.462500",
          "103422.462500",
          "103423.462500",
          "103424.462500",
          "103425.462500",
          "103426.462500",
          "103427.462500",
          "103428.462500",
          "103429.462500",
          "103430.462500",
          "103431.462500",
          "103432.462500",
          "103433.462500",
          "103434.462500",
          "103435.462500",
          "103436.462500",
          "103437.462500",
          "103438.462500",
          "103439.462500",
          "103440.462500",
          "103441.462500",
          "103442.462500",
          "103443.462500",
          "103444.462500",
          "103445.462500",
          "103446.462500",
          "103447.462500",
          "103448.462500",
          "103449.462500",
          "103450.462500",
          "103451.462500",
          "103452.462500",
          "103453.462500",
          "103454.462500",
          "103455.462500",
          "103456.462500",
          "103457.462500",
          "103458.462500",
          "103459.462500",
          "103500.462500",
          "103501.462500",
          "103502.462500",
          "103503.462500",
          "103504.462500",
          "103505.462500",
          "103506.462500",
          "103507.462500",
          "103508.462500",
          "103509.462500",
          "103510.462500",
          "103511.462500",
          "103512.462500",
          "103513.462500",
          "103514.462500",
          "103515.462500",
          "103516.462500",
          "103517.462500",
          "103518.462500",
          "103519.462500",
          "103520.462500",
          "103521.462500",
          "103522.462500",
          "103523.462500",
          "103524.462500",
          "103525.462500",
          "103526.462500",
          "103527.462500",
          "103528.462500",
          "103529.462500",
          "103530.462500",
          "103531.462500",
          "103532.462500",
          "103533.462500",
          "103534.462500"
        ],
        "ContentTime": [
          "103323.961000",
          "103323.964000",
          "103323.967000",
          "103323.970000",
          "103323.976000",
          "103323.979000",
          "103323.982000",
          "103328.959000",
          "103328.969000",
          "103328.972000",
          "103328.975000",
          "103328.978000",
          "103328.981000",
          "103328.988000",
          "103333.959000",
          "103333.962000",
          "103333.965000",
          "103333.968000",
          "103333.971000",
          "103333.974000",
          "103333.982000",
          "103333.985000",
          "103338.960000",
          "103338.963000",
          "103338.966000",
          "103338.969000",
          "103338.972000",
          "103338.975000",
          "103338.978000",
          "103343.959000",
          "103343.962000",
          "103343.965000",
          "103343.968000",
          "103343.971000",
          "103343.974000",
          "103343.977000",
          "103348.959000",
          "103348.962000",
          "103348.965000",
          "103348.968000",
          "103348.971000",
          "103348.974000",
          "103348.977000",
          "103353.959000",
          "103353.962000",
          "103353.965000",
          "103353.968000",
          "103353.971000",
          "103353.974000",
          "103353.977000",
          "103358.959000",
          "103358.962000",
          "103358.965000",
          "103358.968000",
          "103358.971000",
          "103358.974000",
          "103358.977000",
          "103403.959000",
          "103403.962000",
          "103403.965000",
          "103403.968000",
          "103403.971000",
          "103403.974000",
          "103403.977000",
          "103408.959000",
          "103408.962000",
          "103408.965000",
          "103408.970000",
          "103408.973000",
          "103408.976000",
          "103408.979000",
          "103413.960000",
          "103413.963000",
          "103413.966000",
          "103413.969000",
          "103413.972000",
          "103413.975000",
          "103413.978000",
          "103418.959000",
          "103418.962000",
          "103418.965000",
          "103418.968000",
          "103418.971000",
          "103418.974000",
          "103418.977000",
          "103423.959000",
          "103423.962000",
          "103423.965000",
          "103423.968000",
          "103423.971000",
          "103423.974000",
          "103423.977000",
          "103428.959000",
          "103428.962000",
          "103428.965000",
          "103428.968000",
          "103428.971000",
          "103428.974000",
          "103428.977000",
          "103433.959000",
          "103433.962000",
          "103433.965000",
          "103433.968000",
          "103433.971000",
          "103433.979000",
          "103433.982000",
          "103433.985000",
          "103438.959000",
          "103438.962000",
          "103438.965000",
          "103438.968000",
          "103438.971000",
          "103438.974000",
          "103438.977000",
          "103443.959000",
          "103443.962000",
          "103443.965000",
          "103443.968000",
          "103443.971000",
          "103443.974000",
          "103443.977000",
          "103448.960000",
          "103448.963000",
          "103448.966000",
          "103448.969000",
          "103448.972000",
          "103448.975000",
          "103448.978000",
          "103453.959000",
          "103453.962000",
          "103453.965000",
          "103453.968000",
          "103453.971000",
          "103453.974000",
          "103453.977000",
          "103458.959000",
          "103458.962000",
          "103458.965000",
          "103458.968000",
          "103458.971000",
          "103458.974000",
          "103458.977000",
          "103503.959000",
          "103503.962000",
          "103503.965000",
          "103503.968000",
          "103503.971000",
          "103503.974000",
          "103503.977000",
          "103508.959000",
          "103508.962000",
          "103508.965000",
          "103508.968000",
          "103508.971000",
          "103508.974000",
          "103508.977000",
          "103513.959000",
          "103513.962000",
          "103513.965000",
          "103513.968000",
          "103513.971000",
          "103513.974000",
          "103513.977000",
          "103518.959000",
          "103518.962000",
          "103518.965000",
          "103518.968000",
          "103518.971000",
          "103518.974000",
          "103518.977000",
          "103523.960000",
          "103523.963000",
          "103523.981000",
          "103523.984000",
          "103523.987000",
          "103523.990000",
          "103523.993000",
          "103523.996000",
          "103528.959000",
          "103528.962000",
          "103528.965000",
          "103528.968000",
          "103528.971000",
          "103528.974000",
          "103533.959000",
          "103533.962000",
          "103533.965000",
          "103533.968000",
          "103533.971000",
          "103536.322000",
          "103536.325000",
          "103536.328000"
        ],
        "InstanceCreationTime": [
          "103323.961000",
          "103323.964000",
          "103323.967000",
          "103323.970000",
          "103323.976000",
          "103323.979000",
          "103323.982000",
          "103328.959000",
          "103328.969000",
          "103328.972000",
          "103328.975000",
          "103328.978000",
          "103328.981000",
          "103328.988000",
          "103333.959000",
          "103333.962000",
          "103333.965000",
          "103333.968000",
          "103333.971000",
          "103333.974000",
          "103333.982000",
          "103333.985000",
          "103338.960000",
          "103338.963000",
          "103338.966000",
          "103338.969000",
          "103338.972000",
          "103338.975000",
          "103338.978000",
          "103343.959000",
          "103343.962000",
          "103343.965000",
          "103343.968000",
          "103343.971000",
          "103343.974000",
          "103343.977000",
          "103348.959000",
          "103348.962000",
          "103348.965000",
          "103348.968000",
          "103348.971000",
          "103348.974000",
          "103348.977000",
          "103353.959000",
          "103353.962000",
          "103353.965000",
          "103353.968000",
          "103353.971000",
          "103353.974000",
          "103353.977000",
          "103358.959000",
          "103358.962000",
          "103358.965000",
          "103358.968000",
          "103358.971000",
          "103358.974000",
          "103358.977000",
          "103403.959000",
          "103403.962000",
          "103403.965000",
          "103403.968000",
          "103403.971000",
          "103403.974000",
          "103403.977000",
          "103408.959000",
          "103408.962000",
          "103408.965000",
          "103408.970000",
          "103408.973000",
          "103408.976000",
          "103408.979000",
          "103413.960000",
          "103413.963000",
          "103413.966000",
          "103413.969000",
          "103413.972000",
          "103413.975000",
          "103413.978000",
          "103418.959000",
          "103418.962000",
          "103418.965000",
          "103418.968000",
          "103418.971000",
          "103418.974000",
          "103418.977000",
          "103423.959000",
          "103423.962000",
          "103423.965000",
          "103423.968000",
          "103423.971000",
          "103423.974000",
          "103423.977000",
          "103428.959000",
          "103428.962000",
          "103428.965000",
          "103428.968000",
          "103428.971000",
          "103428.974000",
          "103428.977000",
          "103433.959000",
          "103433.962000",
          "103433.965000",
          "103433.968000",
          "103433.971000",
          "103433.979000",
          "103433.982000",
          "103433.985000",
          "103438.959000",
          "103438.962000",
          "103438.965000",
          "103438.968000",
          "103438.971000",
          "103438.974000",
          "103438.977000",
          "103443.959000",
          "103443.962000",
          "103443.965000",
          "103443.968000",
          "103443.971000",
          "103443.974000",
          "103443.977000",
          "103448.960000",
          "103448.963000",
          "103448.966000",
          "103448.969000",
          "103448.972000",
          "103448.975000",
          "103448.978000",
          "103453.959000",
          "103453.962000",
          "103453.965000",
          "103453.968000",
          "103453.971000",
          "103453.974000",
          "103453.977000",
          "103458.959000",
          "103458.962000",
          "103458.965000",
          "103458.968000",
          "103458.971000",
          "103458.974000",
          "103458.977000",
          "103503.959000",
          "103503.962000",
          "103503.965000",
          "103503.968000",
          "103503.971000",
          "103503.974000",
          "103503.977000",
          "103508.959000",
          "103508.962000",
          "103508.965000",
          "103508.968000",
          "103508.971000",
          "103508.974000",
          "103508.977000",
          "103513.959000",
          "103513.962000",
          "103513.965000",
          "103513.968000",
          "103513.971000",
          "103513.974000",
          "103513.977000",
          "103518.959000",
          "103518.962000",
          "103518.965000",
          "103518.968000",
          "103518.971000",
          "103518.974000",
          "103518.977000",
          "103523.960000",
          "103523.963000",
          "103523.981000",
          "103523.984000",
          "103523.987000",
          "103523.990000",
          "103523.993000",
          "103523.996000",
          "103528.959000",
          "103528.962000",
          "103528.965000",
          "103528.968000",
          "103528.971000",
          "103528.974000",
          "103533.959000",
          "103533.962000",
          "103533.965000",
          "103533.968000",
          "103533.971000",
          "103536.322000",
          "103536.325000",
          "103536.328000"
        ],
        "InstanceNumber": [
          1,
          2,
          3,
          4,
          5,
          6,
          7,
          8,
          9,
          10,
          11,
          12,
          13,
          14,
          15,
          16,
          17,
          18,
          19,
          20,
          21,
          22,
          23,
          24,
          25,
          26,
          27,
          28,
          29,
          30,
          31,
          32,
          33,
          34,
          35,
          36,
          37,
          38,
          39,
          40,
          41,
          42,
          43,
          44,
          45,
          46,
          47,
          48,
          49,
          50,
          51,
          52,
          53,
          54,
          55,
          56,
          57,
          58,
          59,
          60,
          61,
          62,
          63,
          64,
          65,
          66,
          67,
          68,
          69,
          70,
          71,
          72,
          73,
          74,
          75,
          76,
          77,
          78,
          79,
          80,
          81,
          82,
          83,
          84,
          85,
          86,
          87,
          88,
          89,
          90,
          91,
          92,
          93,
          94,
          95,
          96,
          97,
          98,
          99,
          100,
          101,
          102,
          103,
          104,
          105,
          106,
          107,
          108,
          109,
          110,
          111,
          112,
          113,
          114,
          115,
          116,
          117,
          118,
          119,
          120,
          121,
          122,
          123,
          124,
          125,
          126,
          127,
          128,
          129,
          130,
          131,
          132,
          133,
          134,
          135,
          136,
          137,
          138,
          139,
          140,
          141,
          142,
          143,
          144,
          145,
          146,
          147,
          148,
          149,
          150,
          151,
          152,
          153,
          154,
          155,
          156,
          157,
          158,
          159,
          160,
          161,
          162,
          163,
          164,
          165,
          166,
          167,
          168,
          169,
          170,
          171,
          172,
          173,
          174,
          175,
          176,
          177,
          178,
          179,
          180,
          181,
          182,
          183,
          184,
          185,
          186,
          187,
          188,
          189,
          190,
          191,
          192
        ],
        "LargestImagePixelValue": [
          39372,
          38440,
          37835,
          38330,
          37578,
          37262,
          37462,
          37191,
          36313,
          36772,
          36286,
          36540,
          36943,
          36846,
          36516,
          36617,
          36648,
          36620,
          37036,
          36748,
          36907,
          36716,
          37119,
          36403,
          36579,
          36671,
          36998,
          36788,
          37052,
          36897,
          36980,
          36895,
          37232,
          37371,
          37658,
          37663,
          37004,
          37822,
          38108,
          38340,
          38044,
          38858,
          38519,
          38599,
          39171,
          38853,
          38050,
          38921,
          38263,
          36556,
          36371,
          37226,
          37064,
          37008,
          36796,
          38114,
          38059,
          38415,
          37963,
          38086,
          37259,
          37341,
          37421,
          37288,
          38012,
          38371,
          38919,
          38588,
          38943,
          39051,
          38458,
          38676,
          38401,
          36434,
          35770,
          35886,
          36174,
          36475,
          37157,
          36898,
          37498,
          37608,
          37223,
