{
  "aor": 0.0005106282722513088,
  "aqi": 0.005569911518324606,
  "bids_meta": {
    "AcquisitionMatrixPE": 104,
    "AcquisitionNumber": 1,
    "AcquisitionTime": "10:40:30.487500",
    "BandwidthPerPixelPhaseEncode": 16.578,
    "BaseResolution": 104,
    "BodyPartExamined": "BRAIN",
    "CogAtlasID": "TODO",
    "ConsistencyInfo": "N4_VE11C_LATEST_20160120",
    "ConversionSoftware": "dcm2niix",
    "ConversionSoftwareVersion": "v1.0.20190902",
    "DerivedVendorReportedEchoSpacing": 0.000580009,
    "DeviceSerialNumber": "166018",
    "DwellTime": 2.1e-06,
    "EchoTime": 0.037,
    "EchoTrainLength": 104,
    "EffectiveEchoSpacing": 0.000580009,
    "FlipAngle": 68,
    "ImageComments": "Unaliased_MB6_PE3_LB",
    "ImageOrientationPatientDICOM": [
      0.993289,
      0.109598,
      0.036937,
      -0.0956429,
      0.957967,
      -0.270464
    ],
    "ImageType": [
      "ORIGINAL",
      "PRIMARY",
      "M",
      "MB",
      "ND",
      "MOSAIC"
    ],
    "ImagingFrequency": 123.191,
    "InPlanePhaseEncodingDirectionDICOM": "COL",
    "InstitutionAddress": "Washington_Place_6_NYC_NYC_US_10003",
    "InstitutionName": "NYU_-_CBI",
    "InstitutionalDepartmentName": "Department",
    "MRAcquisitionType": "2D",
    "MagneticFieldStrength": 3,
    "Manufacturer": "Siemens",
    "ManufacturersModelName": "Prisma",
    "Modality": "MR",
    "MultibandAccelerationFactor": 6,
    "NumberOfVolumes": 192,
    "PartialFourier": 1,
    "PatientPosition": "HFS",
    "PercentPhaseFOV": 100,
    "PhaseEncodingDirection": "j",
    "PhaseEncodingSteps": 104,
    "PhaseResolution": 1,
    "PixelBandwidth": 2290,
    "ProcedureStepDescription": "Investigators_Winawer",
    "ProtocolName": "cmrr_mbepi_s6_2mm_66sl_PA_task-prf",
    "PulseSequenceDetails": "%CustomerSeq%_cmrr_mbep2d_bold",
    "ReceiveCoilActiveElements": "HC1-7",
    "ReceiveCoilName": "HeadNeck_64",
    "ReconMatrixPE": 104,
    "RepetitionTime": 1,
    "SAR": 0.062376,
    "ScanOptions": "FS",
    "ScanningSequence": "EP",
    "SequenceName": "epfid2d1_104",
    "SequenceVariant": "SK_SS",
    "SeriesDescription": "cmrr_mbepi_s6_2mm_66sl_PA_task-prf",
    "SeriesNumber": 16,
    "ShimSetting": [
      272,
      -12573,
      -8445,
      481,
      -12,
      -101,
      -67,
      -2
    ],
    "SliceThickness": 2,
    "SliceTiming": [
      0,
      0.535,
      0.09,
      0.625,
      0.18,
      0.715,
      0.2675,
      0.8025,
      0.3575,
      0.8925,
      0.4475,
      0,
      0.535,
      0.09,
      0.625,
      0.18,
      0.715,
      0.2675,
      0.8025,
      0.3575,
      0.8925,
      0.4475,
      0,
      0.535,
      0.09,
      0.625,
      0.18,
      0.715,
      0.2675,
      0.8025,
      0.3575,
      0.8925,
      0.4475,
      0,
      0.535,
      0.09,
      0.625,
      0.18,
      0.715,
      0.2675,
      0.8025,
      0.3575,
      0.8925,
      0.4475,
      0,
      0.535,
      0.09,
      0.625,
      0.18,
      0.715,
      0.2675,
      0.8025,
      0.3575,
      0.8925,
      0.4475,
      0,
      0.535,
      0.09,
      0.625,
      0.18,
      0.715,
      0.2675,
      0.8025,
      0.3575,
      0.8925,
      0.4475
    ],
    "SoftwareVersions": "syngo_MR_E11",
    "SpacingBetweenSlices": 2,
    "StationName": "AWP166018",
    "TaskName": "prf",
    "TotalReadoutTime": 0.0597409,
    "TxRefAmp": 207.746,
    "WipMemBlock": "a6a7f098-c453-4aa7-b3b4-6b6e67c4d097||Sequence: R016 ve11c/master r/8780670; Nov 27 2017 15:05:12 by eja",
    "acq_id": "PA",
    "dataset": "unknown",
    "dcmmeta_affine": [
      [
        -1.9865789413452148,
        -0.19128571450710297,
        0.13005344569683075,
        119.66618347167969
      ],
      [
        -0.21919570863246918,
        1.9159349203109741,
        -0.5302327871322632,
        -47.2097282409668
      ],
      [
        0.07387398928403854,
        0.5409281849861145,
        1.9240424633026123,
        -72.72578430175781
      ],
      [
        0.0,
        0.0,
        0.0,
        1.0
      ]
    ],
    "dcmmeta_reorient_transform": [
      [
        0.0,
        -1.0,
        0.0,
        103.0
      ],
      [
        1.0,
        0.0,
        0.0,
        0.0
      ],
      [
        0.0,
        0.0,
        1.0,
        0.0
      ],
      [
        0.0,
        0.0,
        0.0,
        1.0
      ]
    ],
    "dcmmeta_shape": [
      104,
      104,
      66,
      192
    ],
    "dcmmeta_slice_dim": 2,
    "dcmmeta_version": 0.6,
    "global": {
      "const": {
        "AccessionNumber": "JUK00BTQ",
        "AcquisitionMatrix": [
          104,
          0,
          0,
          104
        ],
        "AngioFlag": "N",
        "BitsAllocated": 16,
        "BitsStored": 16,
        "BodyPartExamined": "BRAIN",
        "Columns": 936,
        "EchoNumbers": 1,
        "EchoTime": 37.0,
        "EchoTrainLength": 104,
        "FlipAngle": 68.0,
        "HighBit": 15,
        "ImageOrientationPatient": [
          0.99328946855882,
          0.10959785617072,
          0.03693699463853,
          -0.0956428608861,
          0.957967438371,
          -0.2704641014672
        ],
        "ImagePositionPatient": [
          -846.80573146119,
          -1038.3458901661,
          177.28437110658
        ],
        "ImageType": [
          "ORIGINAL",
          "PRIMARY",
          "M",
          "MB",
          "ND",
          "MOSAIC"
        ],
        "ImagedNucleus": "1H",
        "ImagingFrequency": 123.191019,
        "InPlanePhaseEncodingDirection": "COL",
        "MRAcquisitionType": "2D",
        "MagneticFieldStrength": 3.0,
        "Manufacturer": "SIEMENS",
        "ManufacturerModelName": "Prisma",
        "Modality": "MR",
        "NumberOfAverages": 1.0,
        "NumberOfPhaseEncodingSteps": 104,
        "PercentPhaseFieldOfView": 100.0,
        "PercentSampling": 100.0,
        "PerformedProcedureStepStartTime": "101139.639000",
        "PhotometricInterpretation": "MONOCHROME2",
        "PixelBandwidth": 2290.0,
        "PixelRepresentation": 0,
        "PixelSpacing": [
          2.0,
          2.0
        ],
        "ProtocolName": "cmrr_mbepi_s6_2mm_66sl_PA_task-prf",
        "RepetitionTime": 1000.0,
        "Rows": 936,
        "SAR": 0.06237597445712,
        "SamplesPerPixel": 1,
        "ScanOptions": "FS",
        "ScanningSequence": "EP",
        "SequenceName": "epfid2d1_104",
        "SequenceVariant": [
          "SK",
          "SS"
        ],
        "SeriesDescription": "cmrr_mbepi_s6_2mm_66sl_PA_task-prf",
        "SeriesNumber": 16,
        "SeriesTime": "104126.222000",
        "SliceLocation": -49.666178043029,
        "SliceThickness": 2.0,
        "SmallestImagePixelValue": 0,
        "SoftwareVersions": "syngo MR E11",
        "SpacingBetweenSlices": 2.0000000699906,
        "SpecificCharacterSet": "ISO_IR 100",
        "StudyID": "1",
        "StudyTime": "101139.529000",
        "TransmitCoilName": "Body",
        "VariableFlipAngleFlag": "N",
        "WindowCenterWidthExplanation": "Algo1",
        "dBdt": 0.0
      },
      "slices": {}
    },
    "modality": "bold",
    "run_id": 5,
    "session_id": "nyu3t01",
    "subject_id": "wlsubj083",
    "task_id": "prf",
    "time": {
      "samples": {
        "AcquisitionNumber": [
          1,
          2,
          3,
          4,
          5,
          6,
          7,
          8,
          9,
          10,
          11,
          12,
          13,
          14,
          15,
          16,
          17,
          18,
          19,
          20,
          21,
          22,
          23,
          24,
          25,
          26,
          27,
          28,
          29,
          30,
          31,
          32,
          33,
          34,
          35,
          36,
          37,
          38,
          39,
          40,
          41,
          42,
          43,
          44,
          45,
          46,
          47,
          48,
          49,
          50,
          51,
          52,
          53,
          54,
          55,
          56,
          57,
          58,
          59,
          60,
          61,
          62,
          63,
          64,
          65,
          66,
          67,
          68,
          69,
          70,
          71,
          72,
          73,
          74,
          75,
          76,
          77,
          78,
          79,
          80,
          81,
          82,
          83,
          84,
          85,
          86,
          87,
          88,
          89,
          90,
          91,
          92,
          93,
          94,
          95,
          96,
          97,
          98,
          99,
          100,
          101,
          102,
          103,
          104,
          105,
          106,
          107,
          108,
          109,
          110,
          111,
          112,
          113,
          114,
          115,
          116,
          117,
          118,
          119,
          120,
          121,
          122,
          123,
          124,
          125,
          126,
          127,
          128,
          129,
          130,
          131,
          132,
          133,
          134,
          135,
          136,
          137,
          138,
          139,
          140,
          141,
          142,
          143,
          144,
          145,
          146,
          147,
          148,
          149,
          150,
          151,
          152,
          153,
          154,
          155,
          156,
          157,
          158,
          159,
          160,
          161,
          162,
          163,
          164,
          165,
          166,
          167,
          168,
          169,
          170,
          171,
          172,
          173,
          174,
          175,
          176,
          177,
          178,
          179,
          180,
          181,
          182,
          183,
          184,
          185,
          186,
          187,
          188,
          189,
          190,
          191,
          192
        ],
        "AcquisitionTime": [
          "104030.487500",
          "104031.487500",
          "104032.487500",
          "104033.487500",
          "104034.487500",
          "104035.487500",
          "104036.487500",
          "104037.487500",
          "104038.487500",
          "104039.487500",
          "104040.487500",
          "104041.487500",
          "104042.487500",
          "104043.487500",
          "104044.487500",
          "104045.487500",
          "104046.487500",
          "104047.487500",
          "104048.487500",
          "104049.487500",
          "104050.487500",
          "104051.487500",
          "104052.487500",
          "104053.487500",
          "104054.487500",
          "104055.487500",
          "104056.487500",
          "104057.487500",
          "104058.487500",
          "104059.487500",
          "104100.487500",
          "104101.487500",
          "104102.487500",
          "104103.487500",
          "104104.487500",
          "104105.487500",
          "104106.487500",
          "104107.487500",
          "104108.487500",
          "104109.487500",
          "104110.487500",
          "104111.487500",
          "104112.487500",
          "104113.487500",
          "104114.487500",
          "104115.487500",
          "104116.487500",
          "104117.487500",
          "104118.487500",
          "104119.487500",
          "104120.487500",
          "104121.487500",
          "104122.487500",
          "104123.487500",
          "104124.487500",
          "104125.487500",
          "104126.487500",
          "104127.487500",
          "104128.487500",
          "104129.487500",
          "104130.487500",
          "104131.487500",
          "104132.487500",
          "104133.487500",
          "104134.487500",
          "104135.487500",
          "104136.487500",
          "104137.487500",
          "104138.487500",
          "104139.487500",
          "104140.487500",
          "104141.487500",
          "104142.487500",
          "104143.487500",
          "104144.487500",
          "104145.487500",
          "104146.487500",
          "104147.487500",
          "104148.487500",
          "104149.487500",
          "104150.487500",
          "104151.487500",
          "104152.487500",
          "104153.487500",
          "104154.487500",
          "104155.487500",
          "104156.487500",
          "104157.487500",
          "104158.487500",
          "104159.487500",
          "104200.487500",
          "104201.487500",
          "104202.487500",
          "104203.487500",
          "104204.487500",
          "104205.487500",
          "104206.487500",
          "104207.487500",
          "104208.487500",
          "104209.487500",
          "104210.487500",
          "104211.487500",
          "104212.487500",
          "104213.487500",
          "104214.487500",
          "104215.487500",
          "104216.487500",
          "104217.487500",
          "104218.487500",
          "104219.487500",
          "104220.487500",
          "104221.487500",
          "104222.487500",
          "104223.487500",
          "104224.487500",
          "104225.487500",
          "104226.487500",
          "104227.487500",
          "104228.487500",
          "104229.487500",
          "104230.487500",
          "104231.487500",
          "104232.487500",
          "104233.487500",
          "104234.487500",
          "104235.487500",
          "104236.487500",
          "104237.487500",
          "104238.487500",
          "104239.487500",
          "104240.487500",
          "104241.487500",
          "104242.487500",
          "104243.487500",
          "104244.487500",
          "104245.487500",
          "104246.487500",
          "104247.487500",
          "104248.487500",
          "104249.487500",
          "104250.487500",
          "104251.487500",
          "104252.487500",
          "104253.487500",
          "104254.487500",
          "104255.487500",
          "104256.487500",
          "104257.487500",
          "104258.487500",
          "104259.487500",
          "104300.487500",
          "104301.487500",
          "104302.487500",
          "104303.487500",
          "104304.487500",
          "104305.487500",
          "104306.487500",
          "104307.487500",
          "104308.487500",
          "104309.487500",
          "104310.487500",
          "104311.487500",
          "104312.487500",
          "104313.487500",
          "104314.487500",
          "104315.487500",
          "104316.487500",
          "104317.487500",
          "104318.487500",
          "104319.487500",
          "104320.487500",
          "104321.487500",
          "104322.487500",
          "104323.487500",
          "104324.487500",
          "104325.487500",
          "104326.487500",
          "104327.487500",
          "104328.487500",
          "104329.487500",
          "104330.487500",
          "104331.487500",
          "104332.487500",
          "104333.487500",
          "104334.487500",
          "104335.487500",
          "104336.487500",
          "104337.487500",
          "104338.487500",
          "104339.487500",
          "104340.487500",
          "104341.487500"
        ],
        "ContentTime": [
          "104126.225000",
          "104126.228000",
          "104126.251000",
          "104126.254000",
          "104126.258000",
          "104126.261000",
          "104126.263000",
          "104131.223000",
          "104131.233000",
          "104131.240000",
          "104131.243000",
          "104131.246000",
          "104131.249000",
          "104131.252000",
          "104136.223000",
          "104136.235000",
          "104136.238000",
          "104136.241000",
          "104136.244000",
          "104136.247000",
          "104136.250000",
          "104141.223000",
          "104141.226000",
          "104141.229000",
          "104141.232000",
          "104141.235000",
          "104141.238000",
          "104141.249000",
          "104146.223000",
          "104146.226000",
          "104146.229000",
          "104146.232000",
          "104146.235000",
          "104146.238000",
          "104146.241000",
          "104151.223000",
          "104151.226000",
          "104151.229000",
          "104151.232000",
          "104151.235000",
          "104151.238000",
          "104151.241000",
          "104156.223000",
          "104156.226000",
          "104156.229000",
          "104156.232000",
          "104156.235000",
          "104156.238000",
          "104156.241000",
          "104201.223000",
          "104201.226000",
          "104201.229000",
          "104201.232000",
          "104201.235000",
          "104201.238000",
          "104201.241000",
          "104206.223000",
          "104206.226000",
          "104206.229000",
          "104206.232000",
          "104206.235000",
          "104206.238000",
          "104206.241000",
          "104211.223000",
          "104211.226000",
          "104211.229000",
          "104211.232000",
          "104211.235000",
          "104211.239000",
          "104211.242000",
          "104216.223000",
          "104216.226000",
          "104216.229000",
          "104216.232000",
          "104216.235000",
          "104216.238000",
          "104216.241000",
          "104221.223000",
          "104221.226000",
          "104221.229000",
          "104221.232000",
          "104221.235000",
          "104221.238000",
          "104221.241000",
          "104221.244000",
          "104226.223000",
          "104226.226000",
          "104226.229000",
          "104226.232000",
          "104226.235000",
          "104226.238000",
          "104226.241000",
          "104231.223000",
          "104231.226000",
          "104231.229000",
          "104231.232000",
          "104231.235000",
          "104231.238000",
          "104231.241000",
          "104236.223000",
          "104236.226000",
          "104236.229000",
          "104236.232000",
          "104236.235000",
          "104236.238000",
          "104236.241000",
          "104241.223000",
          "104241.226000",
          "104241.229000",
          "104241.232000",
          "104241.235000",
          "104241.238000",
          "104241.241000",
          "104246.223000",
          "104246.226000",
          "104246.229000",
          "104246.232000",
          "104246.235000",
          "104246.238000",
          "104246.241000",
          "104251.223000",
          "104251.226000",
          "104251.229000",
          "104251.232000",
          "104251.235000",
          "104251.238000",
          "104251.241000",
          "104256.223000",
          "104256.270000",
          "104256.281000",
          "104256.284000",
          "104256.287000",
          "104256.290000",
          "104256.293000",
          "104301.223000",
          "104301.226000",
          "104301.229000",
          "104301.232000",
          "104301.235000",
          "104301.238000",
          "104301.241000",
          "104306.223000",
          "104306.227000",
          "104306.230000",
          "104306.234000",
          "104306.237000",
          "104306.241000",
          "104306.244000",
          "104311.223000",
          "104311.226000",
          "104311.229000",
          "104311.232000",
          "104311.235000",
          "104311.238000",
          "104311.241000",
          "104316.223000",
          "104316.226000",
          "104316.229000",
          "104316.232000",
          "104316.235000",
          "104316.238000",
          "104316.241000",
          "104321.223000",
          "104321.226000",
          "104321.229000",
          "104321.232000",
          "104321.235000",
          "104321.238000",
          "104321.241000",
          "104326.223000",
          "104326.226000",
          "104326.229000",
          "104326.243000",
          "104326.246000",
          "104331.223000",
          "104331.226000",
          "104331.229000",
          "104331.232000",
          "104331.235000",
          "104336.223000",
          "104336.226000",
          "104336.229000",
          "104336.232000",
          "104336.235000",
          "104341.223000",
          "104341.226000",
          "104341.229000",
          "104341.232000",
          "104341.235000",
          "104343.586000",
          "104343.589000",
          "104343.592000"
        ],
        "InstanceCreationTime": [
          "104126.225000",
          "104126.228000",
          "104126.251000",
          "104126.254000",
          "104126.258000",
          "104126.261000",
          "104126.263000",
          "104131.223000",
          "104131.233000",
          "104131.240000",
          "104131.243000",
          "104131.246000",
          "104131.249000",
          "104131.252000",
          "104136.223000",
          "104136.235000",
          "104136.238000",
          "104136.241000",
          "104136.244000",
          "104136.247000",
          "104136.250000",
          "104141.223000",
          "104141.226000",
          "104141.229000",
          "104141.232000",
          "104141.235000",
          "104141.238000",
          "104141.249000",
          "104146.223000",
          "104146.226000",
          "104146.229000",
          "104146.232000",
          "104146.235000",
          "104146.238000",
          "104146.241000",
          "104151.223000",
          "104151.226000",
          "104151.229000",
          "104151.232000",
          "104151.235000",
          "104151.238000",
          "104151.241000",
          "104156.223000",
          "104156.226000",
          "104156.229000",
          "104156.232000",
          "104156.235000",
          "104156.238000",
          "104156.241000",
          "104201.223000",
          "104201.226000",
          "104201.229000",
          "104201.232000",
          "104201.235000",
          "104201.238000",
          "104201.241000",
          "104206.223000",
          "104206.226000",
          "104206.229000",
          "104206.232000",
          "104206.235000",
          "104206.238000",
          "104206.241000",
          "104211.223000",
          "104211.226000",
          "104211.229000",
          "104211.232000",
          "104211.235000",
          "104211.239000",
          "104211.242000",
          "104216.223000",
          "104216.226000",
          "104216.229000",
          "104216.232000",
          "104216.235000",
          "104216.238000",
          "104216.241000",
          "104221.223000",
          "104221.226000",
          "104221.229000",
          "104221.232000",
          "104221.235000",
          "104221.238000",
          "104221.241000",
          "104221.244000",
          "104226.223000",
          "104226.226000",
          "104226.229000",
          "104226.232000",
          "104226.235000",
          "104226.238000",
          "104226.241000",
          "104231.223000",
          "104231.226000",
          "104231.229000",
          "104231.232000",
          "104231.235000",
          "104231.238000",
          "104231.241000",
          "104236.223000",
          "104236.226000",
          "104236.229000",
          "104236.232000",
          "104236.235000",
          "104236.238000",
          "104236.241000",
          "104241.223000",
          "104241.226000",
          "104241.229000",
          "104241.232000",
          "104241.235000",
          "104241.238000",
          "104241.241000",
          "104246.223000",
          "104246.226000",
          "104246.229000",
          "104246.232000",
          "104246.235000",
          "104246.238000",
          "104246.241000",
          "104251.223000",
          "104251.226000",
          "104251.229000",
          "104251.232000",
          "104251.235000",
          "104251.238000",
          "104251.241000",
          "104256.223000",
          "104256.270000",
          "104256.281000",
          "104256.284000",
          "104256.287000",
          "104256.290000",
          "104256.293000",
          "104301.223000",
          "104301.226000",
          "104301.229000",
          "104301.232000",
          "104301.235000",
          "104301.238000",
          "104301.241000",
          "104306.223000",
          "104306.227000",
          "104306.230000",
          "104306.234000",
          "104306.237000",
          "104306.241000",
          "104306.244000",
          "104311.223000",
          "104311.226000",
          "104311.229000",
          "104311.232000",
          "104311.235000",
          "104311.238000",
          "104311.241000",
          "104316.223000",
          "104316.226000",
          "104316.229000",
          "104316.232000",
          "104316.235000",
          "104316.238000",
          "104316.241000",
          "104321.223000",
          "104321.226000",
          "104321.229000",
          "104321.232000",
          "104321.235000",
          "104321.238000",
          "104321.241000",
          "104326.223000",
          "104326.226000",
          "104326.229000",
          "104326.243000",
          "104326.246000",
          "104331.223000",
          "104331.226000",
          "104331.229000",
          "104331.232000",
          "104331.235000",
          "104336.223000",
          "104336.226000",
          "104336.229000",
          "104336.232000",
          "104336.235000",
          "104341.223000",
          "104341.226000",
          "104341.229000",
          "104341.232000",
          "104341.235000",
          "104343.586000",
          "104343.589000",
          "104343.592000"
        ],
        "InstanceNumber": [
          1,
          2,
          3,
          4,
          5,
          6,
          7,
          8,
          9,
          10,
          11,
          12,
          13,
          14,
          15,
          16,
          17,
          18,
          19,
          20,
          21,
          22,
          23,
          24,
          25,
          26,
          27,
          28,
          29,
          30,
          31,
          32,
          33,
          34,
          35,
          36,
          37,
          38,
          39,
          40,
          41,
          42,
          43,
          44,
          45,
          46,
          47,
          48,
          49,
          50,
          51,
          52,
          53,
          54,
          55,
          56,
          57,
          58,
          59,
          60,
          61,
          62,
          63,
          64,
          65,
          66,
          67,
          68,
          69,
          70,
          71,
          72,
          73,
          74,
          75,
          76,
          77,
          78,
          79,
          80,
          81,
          82,
          83,
          84,
          85,
          86,
          87,
          88,
          89,
          90,
          91,
          92,
          93,
          94,
          95,
          96,
          97,
          98,
          99,
          100,
          101,
          102,
          103,
          104,
          105,
          106,
          107,
          108,
          109,
          110,
          111,
          112,
          113,
          114,
          115,
          116,
          117,
          118,
          119,
          120,
          121,
          122,
          123,
          124,
          125,
          126,
          127,
          128,
          129,
          130,
          131,
          132,
          133,
          134,
          135,
          136,
          137,
          138,
          139,
          140,
          141,
          142,
          143,
          144,
          145,
          146,
          147,
          148,
          149,
          150,
          151,
          152,
          153,
          154,
          155,
          156,
          157,
          158,
          159,
          160,
          161,
          162,
          163,
          164,
          165,
          166,
          167,
          168,
          169,
          170,
          171,
          172,
          173,
          174,
          175,
          176,
          177,
          178,
          179,
          180,
          181,
          182,
          183,
          184,
          185,
          186,
          187,
          188,
          189,
          190,
          191,
          192
        ],
        "LargestImagePixelValue": [
          41420,
          40784,
          39864,
          39541,
          39234,
          39092,
          39061,
          39330,
          39394,
          39480,
          39368,
          39484,
          39173,
          39024,
          39573,
          39938,
          39247,
          39119,
          39332,
          39183,
          39054,
          38815,
          39418,
          39283,
          39288,
          39475,
          38691,
          37860,
          38383,
          38722,
          38068,
          39466,
          39302,
          39167,
          39563,
          38705,
          38685,
          39154,
          39102,
          38999,
          39075,
          38612,
          38618,
          38556,
          38261,
          38423,
          39028,
          38953,
          38877,
          38727,
          38906,
          39037,
          39202,
          39444,
          39576,
          40028,
          39523,
          39042,
          39624,
          39656,
          39533,
          39266,
          38862,
          38780,
          38851,
          39103,
          39002,
          39046,
          38894,
          38363,
          39599,
          39749,
          39401,
          39065,
          39583,
          39235,
          38905,
          38810,
          39013,
          39189,
          39106,
          39505,
          39339,
