{
  "AcquisitionMatrixPE": 104,
  "AcquisitionNumber": 1,
  "AcquisitionTime": "16:49:2.967500",
  "BandwidthPerPixelPhaseEncode": 16.578,
  "BaseResolution": 104,
  "BodyPartExamined": "BRAIN",
  "ConsistencyInfo": "N4_VE11C_LATEST_20160120",
  "ConversionSoftware": "dcm2niix",
  "ConversionSoftwareVersion": "v1.0.20190902",
  "DerivedVendorReportedEchoSpacing": 0.000580009,
  "DeviceSerialNumber": "166018",
  "DwellTime": 2.1e-06,
  "EchoTime": 0.037,
  "EchoTrainLength": 104,
  "EffectiveEchoSpacing": 0.000580009,
  "FlipAngle": 68,
  "ImageComments": "Unaliased_MB6_PE3_LB",
  "ImageOrientationPatientDICOM": [0.994662, 0.0872356, -0.0551188, -0.0941984, 0.98568, -0.139863],
  "ImageType": [
    "ORIGINAL",
    "PRIMARY",
    "M",
    "MB",
    "ND",
    "MOSAIC"
],
  "ImagingFrequency": 123.191,
  "InPlanePhaseEncodingDirectionDICOM": "COL",
  "InstitutionAddress": "Washington_Place_6_NYC_NYC_US_10003",
  "InstitutionName": "NYU_-_CBI",
  "InstitutionalDepartmentName": "Department",
  "MRAcquisitionType": "2D",
  "MagneticFieldStrength": 3,
  "Manufacturer": "Siemens",
  "ManufacturersModelName": "Prisma",
  "Modality": "MR",
  "MultibandAccelerationFactor": 6,
  "PartialFourier": 1,
  "PatientPosition": "HFS",
  "PercentPhaseFOV": 100,
  "PhaseEncodingDirection": "j",
  "PhaseEncodingSteps": 104,
  "PhaseResolution": 1,
  "PixelBandwidth": 2290,
  "ProcedureStepDescription": "Investigators_Winawer",
  "ProtocolName": "cmrr_mbepi_s6_2mm_66sl_PA_TR1.0",
  "PulseSequenceDetails": "%CustomerSeq%_cmrr_mbep2d_bold",
  "ReceiveCoilActiveElements": "HC1-7",
  "ReceiveCoilName": "HeadNeck_64",
  "ReconMatrixPE": 104,
  "RepetitionTime": 1,
  "SAR": 0.0659502,
  "ScanOptions": "FS",
  "ScanningSequence": "EP",
  "SequenceName": "epfid2d1_104",
  "SequenceVariant": "SK_SS",
  "SeriesDescription": "cmrr_mbepi_s6_2mm_66sl_PA_TR1.0",
  "SeriesNumber": 28,
  "ShimSetting": [241, -12547, -8420, 485, 0, 51, 4, 0],
  "SliceThickness": 2,
  "SliceTiming": [0, 0.5325, 0.0875, 0.6225, 0.1775, 0.7125, 0.2675, 0.8, 0.355, 0.89, 0.445, 0, 0.5325, 0.0875, 0.6225, 0.1775, 0.7125, 0.2675, 0.8, 0.355, 0.89, 0.445, 0, 0.5325, 0.0875, 0.6225, 0.1775, 0.7125, 0.2675, 0.8, 0.355, 0.89, 0.445, 0, 0.5325, 0.0875, 0.6225, 0.1775, 0.7125, 0.2675, 0.8, 0.355, 0.89, 0.445, 0, 0.5325, 0.0875, 0.6225, 0.1775, 0.7125, 0.2675, 0.8, 0.355, 0.89, 0.445, 0, 0.5325, 0.0875, 0.6225, 0.1775, 0.7125, 0.2675, 0.8, 0.355, 0.89, 0.445],
  "SoftwareVersions": "syngo_MR_E11",
  "SpacingBetweenSlices": 2,
  "StationName": "AWP166018",
  "TaskName": "prf",
  "TotalReadoutTime": 0.0597409,
  "TxRefAmp": 222.975,
  "WipMemBlock": "913b94bc-5710-4353-8024-17ffcc5cd6ff||Sequence: ve11c/master r/ab69a6c; Apr 19 2017 09:47:47 by eja",
  "dcmmeta_affine": [
    [-1.989323377609253, -0.18839670717716217, -0.0842568650841713, 121.69368743896484],
    [-0.17447121441364288, 1.9713598489761353, -0.288617879152298, -59.11256790161133],
    [-0.11023762822151184, 0.27972692251205444, 1.9772709608078003, -54.93240737915039],
    [0.0, 0.0, 0.0, 1.0]
],
  "dcmmeta_reorient_transform": [
    [0.0, -1.0, 0.0, 103.0],
    [1.0, 0.0, 0.0, 0.0],
    [0.0, 0.0, 1.0, 0.0],
    [0.0, 0.0, 0.0, 1.0]
],
  "dcmmeta_shape": [104, 104, 66, 192],
  "dcmmeta_slice_dim": 2,
  "dcmmeta_version": 0.6,
  "global": {
    "const": {
      "AccessionNumber": "j7je053q",
      "AcquisitionMatrix": [104, 0, 0, 104],
      "AngioFlag": "N",
      "BitsAllocated": 16,
      "BitsStored": 16,
      "BodyPartExamined": "BRAIN",
      "Columns": 936,
      "EchoNumbers": 1,
      "EchoTime": 37.0,
      "EchoTrainLength": 104,
      "FlipAngle": 68.0,
      "HighBit": 15,
      "ImageOrientationPatient": [0.99466168403017, 0.0872356041281, -0.0551188143439, -0.094198351352, 0.9856799078889, -0.1398634683779],
      "ImagePositionPatient": [-851.47432059925, -1036.6031978124, 136.10472735755],
      "ImageType": [
        "ORIGINAL",
        "PRIMARY",
        "M",
        "MB",
        "ND",
        "MOSAIC"
],
      "ImagedNucleus": "1H",
      "ImagingFrequency": 123.191331,
      "InPlanePhaseEncodingDirection": "COL",
      "MRAcquisitionType": "2D",
      "MagneticFieldStrength": 3.0,
      "Manufacturer": "SIEMENS",
      "ManufacturerModelName": "Prisma",
      "Modality": "MR",
      "NumberOfAverages": 1.0,
      "NumberOfPhaseEncodingSteps": 104,
      "PercentPhaseFieldOfView": 100.0,
      "PercentSampling": 100.0,
      "PerformedProcedureStepStartTime": "160250.364000",
      "PhotometricInterpretation": "MONOCHROME2",
      "PixelBandwidth": 2290.0,
      "PixelRepresentation": 0,
      "PixelSpacing": [2.0, 2.0],
      "ProtocolName": "cmrr_mbepi_s6_2mm_66sl_PA_TR1.0",
      "RepetitionTime": 1000.0,
      "Rows": 936,
      "SAR": 0.06595021518919,
      "SamplesPerPixel": 1,
      "ScanOptions": "FS",
      "ScanningSequence": "EP",
      "SequenceName": "epfid2d1_104",
      "SequenceVariant": [
        "SK",
        "SS"
],
      "SeriesDescription": "cmrr_mbepi_s6_2mm_66sl_PA_TR1.0",
      "SeriesNumber": 28,
      "SeriesTime": "165011.495000",
      "SliceLocation": -50.904418915378,
      "SliceThickness": 2.0,
      "SmallestImagePixelValue": 0,
      "SoftwareVersions": "syngo MR E11",
      "SpacingBetweenSlices": 2.000000004934,
      "SpecificCharacterSet": "ISO_IR 100",
      "StudyID": "1",
      "StudyTime": "160250.303000",
      "TransmitCoilName": "Body",
      "VariableFlipAngleFlag": "N",
      "WindowCenterWidthExplanation": "Algo1",
      "dBdt": 0.0},
    "slices": {}
  },
  "time": {
    "samples": {
      "AcquisitionNumber": [1, 2, 3, 4, 5, 6, 7, 8, 9, 10, 11, 12, 13, 14, 15, 16, 17, 18, 19, 20, 21, 22, 23, 24, 25, 26, 27, 28, 29, 30, 31, 32, 33, 34, 35, 36, 37, 38, 39, 40, 41, 42, 43, 44, 45, 46, 47, 48, 49, 50, 51, 52, 53, 54, 55, 56, 57, 58, 59, 60, 61, 62, 63, 64, 65, 66, 67, 68, 69, 70, 71, 72, 73, 74, 75, 76, 77, 78, 79, 80, 81, 82, 83, 84, 85, 86, 87, 88, 89, 90, 91, 92, 93, 94, 95, 96, 97, 98, 99, 100, 101, 102, 103, 104, 105, 106, 107, 108, 109, 110, 111, 112, 113, 114, 115, 116, 117, 118, 119, 120, 121, 122, 123, 124, 125, 126, 127, 128, 129, 130, 131, 132, 133, 134, 135, 136, 137, 138, 139, 140, 141, 142, 143, 144, 145, 146, 147, 148, 149, 150, 151, 152, 153, 154, 155, 156, 157, 158, 159, 160, 161, 162, 163, 164, 165, 166, 167, 168, 169, 170, 171, 172, 173, 174, 175, 176, 177, 178, 179, 180, 181, 182, 183, 184, 185, 186, 187, 188, 189, 190, 191, 192],
      "AcquisitionTime": ["164902.967500", "164903.967500", "164904.967500", "164905.967500", "164906.967500", "164907.967500", "164908.967500", "164909.967500", "164910.967500", "164911.967500", "164912.967500", "164913.967500", "164914.967500", "164915.967500", "164916.967500", "164917.967500", "164918.967500", "164919.967500", "164920.967500", "164921.967500", "164922.967500", "164923.967500", "164924.967500", "164925.967500", "164926.967500", "164927.967500", "164928.967500", "164929.967500", "164930.967500", "164931.967500", "164932.967500", "164933.967500", "164934.967500", "164935.967500", "164936.967500", "164937.967500", "164938.967500", "164939.967500", "164940.967500", "164941.967500", "164942.967500", "164943.967500", "164944.967500", "164945.967500", "164946.967500", "164947.967500", "164948.967500", "164949.967500", "164950.967500", "164951.967500", "164952.967500", "164953.967500", "164954.967500", "164955.967500", "164956.967500", "164957.967500", "164958.967500", "164959.967500", "165000.967500", "165001.967500", "165002.967500", "165003.967500", "165004.967500", "165005.967500", "165006.967500", "165007.967500", "165008.967500", "165009.967500", "165010.967500", "165011.967500", "165012.967500", "165013.967500", "165014.967500", "165015.967500", "165016.967500", "165017.967500", "165018.967500", "165019.967500", "165020.967500", "165021.967500", "165022.967500", "165023.967500", "165024.967500", "165025.967500", "165026.967500", "165027.967500", "165028.967500", "165029.967500", "165030.967500", "165031.967500", "165032.967500", "165033.967500", "165034.967500", "165035.967500", "165036.967500", "165037.967500", "165038.967500", "165039.967500", "165040.967500", "165041.967500", "165042.967500", "165043.967500", "165044.967500", "165045.967500", "165046.967500", "165047.967500", "165048.967500", "165049.967500", "165050.967500", "165051.967500", "165052.967500", "165053.967500", "165054.967500", "165055.967500", "165056.967500", "165057.967500", "165058.967500", "165059.967500", "165100.967500", "165101.967500", "165102.967500", "165103.967500", "165104.967500", "165105.967500", "165106.967500", "165107.967500", "165108.967500", "165109.967500", "165110.967500", "165111.967500", "165112.967500", "165113.967500", "165114.967500", "165115.967500", "165116.967500", "165117.967500", "165118.967500", "165119.967500", "165120.967500", "165121.967500", "165122.967500", "165123.967500", "165124.967500", "165125.967500", "165126.967500", "165127.967500", "165128.967500", "165129.967500", "165130.967500", "165131.967500", "165132.967500", "165133.967500", "165134.967500", "165135.967500", "165136.967500", "165137.967500", "165138.967500", "165139.967500", "165140.967500", "165141.967500", "165142.967500", "165143.967500", "165144.967500", "165145.967500", "165146.967500", "165147.967500", "165148.967500", "165149.967500", "165150.967500", "165151.967500", "165152.967500", "165153.967500", "165154.967500", "165155.967500", "165156.967500", "165157.967500", "165158.967500", "165159.967500", "165200.967500", "165201.967500", "165202.967500", "165203.967500", "165204.967500", "165205.967500", "165206.967500", "165207.967500", "165208.967500", "165209.967500", "165210.967500", "165211.967500", "165212.967500", "165213.967500"],
      "ContentTime": ["165011.497000", "165011.501000", "165011.504000", "165011.507000", "165011.510000", "165011.513000", "165011.516000", "165011.519000", "165011.522000", "165011.525000", "165011.528000", "165011.531000", "165011.534000", "165011.537000", "165011.550000", "165011.553000", "165011.556000", "165031.455000", "165031.458000", "165031.461000", "165031.464000", "165031.467000", "165031.470000", "165031.473000", "165031.476000", "165031.479000", "165031.482000", "165031.485000", "165031.488000", "165031.491000", "165031.494000", "165031.497000", "165031.500000", "165031.503000", "165031.506000", "165031.522000", "165031.525000", "165031.528000", "165031.531000", "165031.534000", "165031.544000", "165031.547000", "165031.550000", "165031.553000", "165031.556000", "165051.456000", "165051.459000", "165051.462000", "165051.472000", "165051.475000", "165051.478000", "165051.481000", "165051.484000", "165051.487000", "165051.490000", "165051.493000", "165051.496000", "165051.499000", "165051.502000", "165051.505000", "165051.508000", "165051.511000", "165051.514000", "165051.516000", "165051.519000", "165051.522000", "165051.525000", "165051.528000", "165051.531000", "165051.534000", "165051.537000", "165051.540000", "165051.543000", "165051.546000", "165111.456000", "165111.459000", "165111.462000", "165111.465000", "165111.468000", "165111.471000", "165111.474000", "165111.477000", "165111.480000", "165111.483000", "165111.486000", "165111.489000", "165111.492000", "165111.495000", "165111.498000", "165111.501000", "165111.504000", "165111.507000", "165111.510000", "165111.513000", "165111.516000", "165111.519000", "165111.522000", "165111.525000", "165111.528000", "165111.531000", "165111.534000", "165111.537000", "165131.456000", "165131.459000", "165131.462000", "165131.465000", "165131.468000", "165131.471000", "165131.474000", "165131.477000", "165131.480000", "165131.483000", "165131.486000", "165131.489000", "165131.492000", "165131.495000", "165131.498000", "165131.501000", "165131.504000", "165131.507000", "165131.510000", "165131.513000", "165131.516000", "165131.519000", "165131.522000", "165131.525000", "165131.528000", "165131.531000", "165131.534000", "165131.537000", "165151.456000", "165151.459000", "165151.462000", "165151.465000", "165151.468000", "165151.471000", "165151.474000", "165151.477000", "165151.480000", "165151.483000", "165151.486000", "165151.489000", "165151.492000", "165151.495000", "165151.498000", "165151.501000", "165151.504000", "165151.507000", "165151.510000", "165151.513000", "165151.516000", "165151.519000", "165151.522000", "165151.525000", "165151.528000", "165151.531000", "165151.534000", "165151.537000", "165151.540000", "165211.456000", "165211.459000", "165211.462000", "165211.465000", "165211.468000", "165211.471000", "165211.474000", "165211.477000", "165211.480000", "165211.483000", "165211.486000", "165211.489000", "165211.492000", "165211.495000", "165211.498000", "165211.501000", "165211.504000", "165211.507000", "165211.510000", "165211.513000", "165211.516000", "165211.519000", "165211.522000", "165211.525000", "165211.528000", "165211.531000", "165211.534000", "165211.537000", "165215.951000", "165215.955000", "165215.958000", "165215.961000", "165215.964000"],
      "InstanceCreationTime": ["165011.497000", "165011.501000", "165011.504000", "165011.507000", "165011.510000", "165011.513000", "165011.516000", "165011.519000", "165011.522000", "165011.525000", "165011.528000", "165011.531000", "165011.534000", "165011.537000", "165011.550000", "165011.553000", "165011.556000", "165031.455000", "165031.458000", "165031.461000", "165031.464000", "165031.467000", "165031.470000", "165031.473000", "165031.476000", "165031.479000", "165031.482000", "165031.485000", "165031.488000", "165031.491000", "165031.494000", "165031.497000", "165031.500000", "165031.503000", "165031.506000", "165031.522000", "165031.525000", "165031.528000", "165031.531000", "165031.534000", "165031.544000", "165031.547000", "165031.550000", "165031.553000", "165031.556000", "165051.456000", "165051.459000", "165051.462000", "165051.472000", "165051.475000", "165051.478000", "165051.481000", "165051.484000", "165051.487000", "165051.490000", "165051.493000", "165051.496000", "165051.499000", "165051.502000", "165051.505000", "165051.508000", "165051.511000", "165051.514000", "165051.516000", "165051.519000", "165051.522000", "165051.525000", "165051.528000", "165051.531000", "165051.534000", "165051.537000", "165051.540000", "165051.543000", "165051.546000", "165111.456000", "165111.459000", "165111.462000", "165111.465000", "165111.468000", "165111.471000", "165111.474000", "165111.477000", "165111.480000", "165111.483000", "165111.486000", "165111.489000", "165111.492000", "165111.495000", "165111.498000", "165111.501000", "165111.504000", "165111.507000", "165111.510000", "165111.513000", "165111.516000", "165111.519000", "165111.522000", "165111.525000", "165111.528000", "165111.531000", "165111.534000", "165111.537000", "165131.456000", "165131.459000", "165131.462000", "165131.465000", "165131.468000", "165131.471000", "165131.474000", "165131.477000", "165131.480000", "165131.483000", "165131.486000", "165131.489000", "165131.492000", "165131.495000", "165131.498000", "165131.501000", "165131.504000", "165131.507000", "165131.510000", "165131.513000", "165131.516000", "165131.519000", "165131.522000", "165131.525000", "165131.528000", "165131.531000", "165131.534000", "165131.537000", "165151.456000", "165151.459000", "165151.462000", "165151.465000", "165151.468000", "165151.471000", "165151.474000", "165151.477000", "165151.480000", "165151.483000", "165151.486000", "165151.489000", "165151.492000", "165151.495000", "165151.498000", "165151.501000", "165151.504000", "165151.507000", "165151.510000", "165151.513000", "165151.516000", "165151.519000", "165151.522000", "165151.525000", "165151.528000", "165151.531000", "165151.534000", "165151.537000", "165151.540000", "165211.456000", "165211.459000", "165211.462000", "165211.465000", "165211.468000", "165211.471000", "165211.474000", "165211.477000", "165211.480000", "165211.483000", "165211.486000", "165211.489000", "165211.492000", "165211.495000", "165211.498000", "165211.501000", "165211.504000", "165211.507000", "165211.510000", "165211.513000", "165211.516000", "165211.519000", "165211.522000", "165211.525000", "165211.528000", "165211.531000", "165211.534000", "165211.537000", "165215.951000", "165215.955000", "165215.958000", "165215.961000", "165215.964000"],
      "InstanceNumber": [1, 2, 3, 4, 5, 6, 7, 8, 9, 10, 11, 12, 13, 14, 15, 16, 17, 18, 19, 20, 21, 22, 23, 24, 25, 26, 27, 28, 29, 30, 31, 32, 33, 34, 35, 36, 37, 38, 39, 40, 41, 42, 43, 44, 45, 46, 47, 48, 49, 50, 51, 52, 53, 54, 55, 56, 57, 58, 59, 60, 61, 62, 63, 64, 65, 66, 67, 68, 69, 70, 71, 72, 73, 74, 75, 76, 77, 78, 79, 80, 81, 82, 83, 84, 85, 86, 87, 88, 89, 90, 91, 92, 93, 94, 95, 96, 97, 98, 99, 100, 101, 102, 103, 104, 105, 106, 107, 108, 109, 110, 111, 112, 113, 114, 115, 116, 117, 118, 119, 120, 121, 122, 123, 124, 125, 126, 127, 128, 129, 130, 131, 132, 133, 134, 135, 136, 137, 138, 139, 140, 141, 142, 143, 144, 145, 146, 147, 148, 149, 150, 151, 152, 153, 154, 155, 156, 157, 158, 159, 160, 161, 162, 163, 164, 165, 166, 167, 168, 169, 170, 171, 172, 173, 174, 175, 176, 177, 178, 179, 180, 181, 182, 183, 184, 185, 186, 187, 188, 189, 190, 191, 192],
      "LargestImagePixelValue": [31020, 29442, 28228, 28350, 27545, 27564, 26910, 27529, 27215, 27828, 27713, 28251, 28084, 27891, 28054, 27466, 27731, 27885, 27843, 27099, 27582, 27635, 29905, 27837, 27335, 27451, 28169, 28070, 28130, 27592, 28337, 28353, 28280, 28190, 27781, 28690, 28518, 28204, 28560, 28260, 27985, 28080, 28109, 29170, 28106, 28338, 28294, 28149, 28136, 27696, 27689, 27788, 27767, 27786, 27690, 27728, 28024, 28487, 28431, 28387, 28093, 27895, 27993, 27901, 27764, 28449, 28381, 27758, 28664, 28768, 27920, 28089, 27930, 28067, 28133, 27728, 28408, 28296, 28144, 28015, 27603, 28034, 27891, 27266, 28999, 29069, 28449, 28137, 28189, 27719, 28845, 27948, 28117, 27868, 27836, 27322, 27604, 27416, 27653, 27574, 27905, 28066, 27908, 29482, 27588, 28050, 27503, 28408, 27734, 28318, 28463, 28400, 27826, 28162, 28121, 27999, 28602, 29250, 28717, 30545, 28134, 29697, 28636, 29183, 30015, 28372, 28770, 28422, 28356, 30112, 28978, 28303, 28437, 28207, 27955, 30678, 27837, 28176, 28379, 27961, 28298, 27814, 28139, 27292, 27653, 27619, 29036, 27634, 27702, 27354, 27997, 27412, 27910, 28020, 27231, 28034, 27871, 27937, 28039, 27662, 28208, 28715, 28335, 28483, 28095, 28668, 28342, 29060, 29594, 28331, 28706, 29236, 28513, 28863, 28284, 29727, 28658, 29719, 28731, 29338, 29272, 28857, 28787, 27936, 30399, 28389, 28271, 28613, 28476, 27737, 29925, 28379],
      "WindowCenter": [8914.0, 8876.0, 8843.0, 8841.0, 8832.0, 8823.0, 8814.0, 8811.0, 8803.0, 8800.0, 8799.0, 8805.0, 8814.0, 8816.0, 8826.0, 8828.0, 8839.0, 8856.0, 8859.0, 8854.0, 8854.0, 8860.0, 8879.0, 8850.0, 8843.0, 8841.0, 8856.0, 8866.0, 8868.0, 8864.0, 8875.0, 8868.0, 8858.0, 8842.0, 8840.0, 8853.0, 8852.0, 8846.0, 8852.0, 8849.0, 8839.0, 8840.0, 8838.0, 8844.0, 8839.0, 8846.0, 8847.0, 8847.0, 8837.0, 8819.0, 8817.0, 8825.0, 8829.0, 8846.0, 8857.0, 8857.0, 8858.0, 8855.0, 8847.0, 8844.0, 8837.0, 8830.0, 8839.0, 8846.0, 8859.0, 8865.0, 8867.0, 8850.0, 8854.0, 8844.0, 8829.0, 8833.0, 8827.0, 8818.0, 8826.0, 8817.0, 8824.0, 8817.0, 8817.0, 8817.0, 8820.0, 8834.0, 8837.0, 8821.0, 8841.0, 8851.0, 8866.0, 8858.0, 8846.0, 8822.0, 8824.0, 8809.0, 8815.0, 8807.0, 8808.0, 8809.0, 8816.0, 8826.0, 8829.0, 8838.0, 8839.0, 8847.0, 8849.0, 8876.0, 8859.0, 8867.0, 8870.0, 8886.0, 8889.0, 8897.0, 8895.0, 8896.0, 8880.0, 8871.0, 8859.0, 8859.0, 8864.0, 8879.0, 8882.0, 8904.0, 8875.0, 8897.0, 8882.0, 8890.0, 8904.0, 8894.0, 8891.0, 8894.0, 8894.0, 8925.0, 8912.0, 8898.0, 8877.0, 8860.0, 8840.0, 8864.0, 8829.0, 8818.0, 8815.0, 8805.0, 8807.0, 8805.0, 8807.0, 8790.0, 8788.0, 8779.0, 8808.0, 8790.0, 8796.0, 8782.0, 8794.0, 8796.0, 8804.0, 8814.0, 8801.0, 8815.0, 8815.0, 8825.0, 8833.0, 8846.0, 8864.0, 8883.0, 8868.0, 8858.0, 8847.0, 8852.0, 8846.0, 8851.0, 8866.0, 8854.0, 8869.0, 8878.0, 8885.0, 8892.0, 8885.0, 8896.0, 8875.0, 8888.0, 8876.0, 8889.0, 8881.0, 8881.0, 8890.0, 8880.0, 8933.0, 8927.0, 8909.0, 8897.0, 8878.0, 8870.0, 8879.0, 8840.0],
      "WindowWidth": [18762.0, 18677.0, 18614.0, 18606.0, 18588.0, 18572.0, 18552.0, 18541.0, 18527.0, 18519.0, 18517.0, 18527.0, 18543.0, 18551.0, 18572.0, 18579.0, 18605.0, 18636.0, 18647.0, 18641.0, 18641.0, 18648.0, 18676.0, 18626.0, 18616.0, 18609.0, 18637.0, 18656.0, 18665.0, 18663.0, 18674.0, 18664.0, 18641.0, 18613.0, 18605.0, 18627.0, 18623.0, 18617.0, 18627.0, 18625.0, 18605.0, 18609.0, 18601.0, 18610.0, 18603.0, 18615.0, 18618.0, 18617.0, 18594.0, 18558.0, 18554.0, 18571.0, 18580.0, 18615.0, 18637.0, 18639.0, 18639.0, 18630.0, 18614.0, 18607.0, 18595.0, 18584.0, 18604.0, 18617.0, 18647.0, 18655.0, 18660.0, 18628.0, 18630.0, 18608.0, 18581.0, 18582.0, 18574.0, 18556.0, 18571.0, 18554.0, 18566.0, 18554.0, 18554.0, 18556.0, 18564.0, 18585.0, 18596.0, 18568.0, 18601.0, 18623.0, 18660.0, 18642.0, 18615.0, 18568.0, 18563.0, 18537.0, 18545.0, 18533.0, 18535.0, 18540.0, 18552.0, 18574.0, 18583.0, 18600.0, 18605.0, 18621.0, 18629.0, 18672.0, 18649.0, 18663.0, 18676.0, 18703.0, 18715.0, 18727.0, 18720.0, 18724.0, 18696.0, 18677.0, 18652.0, 18652.0, 18656.0, 18684.0, 18689.0, 18727.0, 18680.0, 18713.0, 18689.0, 18702.0, 18728.0, 18715.0, 18706.0, 18718.0, 18719.0, 18774.0, 18754.0, 18724.0, 18678.0, 18646.0, 18605.0, 18639.0, 18582.0, 18557.0, 18549.0, 18528.0, 18533.0, 18526.0, 18531.0, 18499.0, 18493.0, 18478.0, 18526.0, 18499.0, 18511.0, 18488.0, 18507.0, 18513.0, 18526.0, 18548.0, 18529.0, 18551.0, 18554.0, 18572.0, 18589.0, 18621.0, 18655.0, 18691.0, 18665.0, 18644.0, 18620.0, 18626.0, 18615.0, 18624.0, 18650.0, 18633.0, 18660.0, 18680.0, 18698.0, 18710.0, 18699.0, 18710.0, 18676.0, 18697.0, 18680.0, 18698.0, 18688.0, 18688.0, 18705.0, 18695.0, 18789.0, 18789.0, 18756.0, 18725.0, 18684.0, 18666.0, 18672.0, 18605.0]
    },
    "slices": {}
  },
  "NumberOfVolumes": 192
}