{
  "AcquisitionMatrixPE": 104,
  "AcquisitionNumber": 1,
  "AcquisitionTime": "16:39:36.685000",
  "BandwidthPerPixelPhaseEncode": 16.578,
  "BaseResolution": 104,
  "BodyPartExamined": "BRAIN",
  "ConsistencyInfo": "N4_VE11C_LATEST_20160120",
  "ConversionSoftware": "dcm2niix",
  "ConversionSoftwareVersion": "v1.0.20190902",
  "DerivedVendorReportedEchoSpacing": 0.000580009,
  "DeviceSerialNumber": "166018",
  "DwellTime": 2.1e-06,
  "EchoTime": 0.037,
  "EchoTrainLength": 104,
  "EffectiveEchoSpacing": 0.000580009,
  "FlipAngle": 68,
  "ImageComments": "Unaliased_MB6_PE3_LB",
  "ImageOrientationPatientDICOM": [0.994662, 0.0872356, -0.0551188, -0.0941984, 0.98568, -0.139863],
  "ImageType": [
    "ORIGINAL",
    "PRIMARY",
    "M",
    "MB",
    "ND",
    "MOSAIC"
],
  "ImagingFrequency": 123.191,
  "InPlanePhaseEncodingDirectionDICOM": "COL",
  "InstitutionAddress": "Washington_Place_6_NYC_NYC_US_10003",
  "InstitutionName": "NYU_-_CBI",
  "InstitutionalDepartmentName": "Department",
  "MRAcquisitionType": "2D",
  "MagneticFieldStrength": 3,
  "Manufacturer": "Siemens",
  "ManufacturersModelName": "Prisma",
  "Modality": "MR",
  "MultibandAccelerationFactor": 6,
  "PartialFourier": 1,
  "PatientPosition": "HFS",
  "PercentPhaseFOV": 100,
  "PhaseEncodingDirection": "j",
  "PhaseEncodingSteps": 104,
  "PhaseResolution": 1,
  "PixelBandwidth": 2290,
  "ProcedureStepDescription": "Investigators_Winawer",
  "ProtocolName": "cmrr_mbepi_s6_2mm_66sl_PA_TR1.0",
  "PulseSequenceDetails": "%CustomerSeq%_cmrr_mbep2d_bold",
  "ReceiveCoilActiveElements": "HC1-7",
  "ReceiveCoilName": "HeadNeck_64",
  "ReconMatrixPE": 104,
  "RepetitionTime": 1,
  "SAR": 0.0659502,
  "ScanOptions": "FS",
  "ScanningSequence": "EP",
  "SequenceName": "epfid2d1_104",
  "SequenceVariant": "SK_SS",
  "SeriesDescription": "cmrr_mbepi_s6_2mm_66sl_PA_TR1.0",
  "SeriesNumber": 24,
  "ShimSetting": [241, -12547, -8420, 485, 0, 51, 4, 0],
  "SliceThickness": 2,
  "SliceTiming": [0, 0.535, 0.09, 0.625, 0.18, 0.7125, 0.2675, 0.8025, 0.3575, 0.8925, 0.4475, 0, 0.535, 0.09, 0.625, 0.18, 0.7125, 0.2675, 0.8025, 0.3575, 0.8925, 0.4475, 0, 0.535, 0.09, 0.625, 0.18, 0.7125, 0.2675, 0.8025, 0.3575, 0.8925, 0.4475, 0, 0.535, 0.09, 0.625, 0.18, 0.7125, 0.2675, 0.8025, 0.3575, 0.8925, 0.4475, 0, 0.535, 0.09, 0.625, 0.18, 0.7125, 0.2675, 0.8025, 0.3575, 0.8925, 0.4475, 0, 0.535, 0.09, 0.625, 0.18, 0.7125, 0.2675, 0.8025, 0.3575, 0.8925, 0.4475],
  "SoftwareVersions": "syngo_MR_E11",
  "SpacingBetweenSlices": 2,
  "StationName": "AWP166018",
  "TaskName": "prf",
  "TotalReadoutTime": 0.0597409,
  "TxRefAmp": 222.975,
  "WipMemBlock": "f38df4fa-044e-4f43-8b25-d10423872ef9||Sequence: ve11c/master r/ab69a6c; Apr 19 2017 09:47:47 by eja",
  "dcmmeta_affine": [
    [-1.989323377609253, -0.18839670717716217, -0.0842568650841713, 121.69368743896484],
    [-0.17447121441364288, 1.9713598489761353, -0.288617879152298, -59.11256790161133],
    [-0.11023762822151184, 0.27972692251205444, 1.9772709608078003, -54.93240737915039],
    [0.0, 0.0, 0.0, 1.0]
],
  "dcmmeta_reorient_transform": [
    [0.0, -1.0, 0.0, 103.0],
    [1.0, 0.0, 0.0, 0.0],
    [0.0, 0.0, 1.0, 0.0],
    [0.0, 0.0, 0.0, 1.0]
],
  "dcmmeta_shape": [104, 104, 66, 192],
  "dcmmeta_slice_dim": 2,
  "dcmmeta_version": 0.6,
  "global": {
    "const": {
      "AccessionNumber": "j7je053q",
      "AcquisitionMatrix": [104, 0, 0, 104],
      "AngioFlag": "N",
      "BitsAllocated": 16,
      "BitsStored": 16,
      "BodyPartExamined": "BRAIN",
      "Columns": 936,
      "EchoNumbers": 1,
      "EchoTime": 37.0,
      "EchoTrainLength": 104,
      "FlipAngle": 68.0,
      "HighBit": 15,
      "ImageOrientationPatient": [0.99466168403017, 0.0872356041281, -0.0551188143439, -0.094198351352, 0.9856799078889, -0.1398634683779],
      "ImagePositionPatient": [-851.47432059925, -1036.6031978124, 136.10472735755],
      "ImageType": [
        "ORIGINAL",
        "PRIMARY",
        "M",
        "MB",
        "ND",
        "MOSAIC"
],
      "ImagedNucleus": "1H",
      "ImagingFrequency": 123.191333,
      "InPlanePhaseEncodingDirection": "COL",
      "MRAcquisitionType": "2D",
      "MagneticFieldStrength": 3.0,
      "Manufacturer": "SIEMENS",
      "ManufacturerModelName": "Prisma",
      "Modality": "MR",
      "NumberOfAverages": 1.0,
      "NumberOfPhaseEncodingSteps": 104,
      "PercentPhaseFieldOfView": 100.0,
      "PercentSampling": 100.0,
      "PerformedProcedureStepStartTime": "160250.364000",
      "PhotometricInterpretation": "MONOCHROME2",
      "PixelBandwidth": 2290.0,
      "PixelRepresentation": 0,
      "PixelSpacing": [2.0, 2.0],
      "ProtocolName": "cmrr_mbepi_s6_2mm_66sl_PA_TR1.0",
      "RepetitionTime": 1000.0,
      "Rows": 936,
      "SAR": 0.06595021518919,
      "SamplesPerPixel": 1,
      "ScanOptions": "FS",
      "ScanningSequence": "EP",
      "SequenceName": "epfid2d1_104",
      "SequenceVariant": [
        "SK",
        "SS"
],
      "SeriesDescription": "cmrr_mbepi_s6_2mm_66sl_PA_TR1.0",
      "SeriesNumber": 24,
      "SeriesTime": "164033.180000",
      "SliceLocation": -50.904418915378,
      "SliceThickness": 2.0,
      "SmallestImagePixelValue": 0,
      "SoftwareVersions": "syngo MR E11",
      "SpacingBetweenSlices": 2.000000004934,
      "SpecificCharacterSet": "ISO_IR 100",
      "StudyID": "1",
      "StudyTime": "160250.303000",
      "TransmitCoilName": "Body",
      "VariableFlipAngleFlag": "N",
      "WindowCenterWidthExplanation": "Algo1",
      "dBdt": 0.0},
    "slices": {}
  },
  "time": {
    "samples": {
      "AcquisitionNumber": [1, 2, 3, 4, 5, 6, 7, 8, 9, 10, 11, 12, 13, 14, 15, 16, 17, 18, 19, 20, 21, 22, 23, 24, 25, 26, 27, 28, 29, 30, 31, 32, 33, 34, 35, 36, 37, 38, 39, 40, 41, 42, 43, 44, 45, 46, 47, 48, 49, 50, 51, 52, 53, 54, 55, 56, 57, 58, 59, 60, 61, 62, 63, 64, 65, 66, 67, 68, 69, 70, 71, 72, 73, 74, 75, 76, 77, 78, 79, 80, 81, 82, 83, 84, 85, 86, 87, 88, 89, 90, 91, 92, 93, 94, 95, 96, 97, 98, 99, 100, 101, 102, 103, 104, 105, 106, 107, 108, 109, 110, 111, 112, 113, 114, 115, 116, 117, 118, 119, 120, 121, 122, 123, 124, 125, 126, 127, 128, 129, 130, 131, 132, 133, 134, 135, 136, 137, 138, 139, 140, 141, 142, 143, 144, 145, 146, 147, 148, 149, 150, 151, 152, 153, 154, 155, 156, 157, 158, 159, 160, 161, 162, 163, 164, 165, 166, 167, 168, 169, 170, 171, 172, 173, 174, 175, 176, 177, 178, 179, 180, 181, 182, 183, 184, 185, 186, 187, 188, 189, 190, 191, 192],
      "AcquisitionTime": ["163936.685000", "163937.685000", "163938.685000", "163939.685000", "163940.685000", "163941.685000", "163942.685000", "163943.685000", "163944.685000", "163945.685000", "163946.685000", "163947.685000", "163948.685000", "163949.685000", "163950.685000", "163951.685000", "163952.685000", "163953.685000", "163954.685000", "163955.685000", "163956.685000", "163957.685000", "163958.685000", "163959.685000", "164000.685000", "164001.685000", "164002.685000", "164003.685000", "164004.685000", "164005.685000", "164006.685000", "164007.685000", "164008.685000", "164009.685000", "164010.685000", "164011.685000", "164012.685000", "164013.685000", "164014.685000", "164015.685000", "164016.685000", "164017.685000", "164018.685000", "164019.685000", "164020.685000", "164021.685000", "164022.685000", "164023.685000", "164024.685000", "164025.685000", "164026.685000", "164027.685000", "164028.685000", "164029.685000", "164030.685000", "164031.685000", "164032.685000", "164033.685000", "164034.685000", "164035.685000", "164036.685000", "164037.685000", "164038.685000", "164039.685000", "164040.685000", "164041.685000", "164042.685000", "164043.685000", "164044.685000", "164045.685000", "164046.685000", "164047.685000", "164048.685000", "164049.685000", "164050.685000", "164051.685000", "164052.685000", "164053.685000", "164054.685000", "164055.685000", "164056.685000", "164057.685000", "164058.685000", "164059.685000", "164100.685000", "164101.685000", "164102.685000", "164103.685000", "164104.685000", "164105.685000", "164106.685000", "164107.685000", "164108.685000", "164109.685000", "164110.685000", "164111.685000", "164112.685000", "164113.685000", "164114.685000", "164115.685000", "164116.685000", "164117.685000", "164118.685000", "164119.685000", "164120.685000", "164121.685000", "164122.685000", "164123.685000", "164124.685000", "164125.685000", "164126.685000", "164127.685000", "164128.685000", "164129.685000", "164130.685000", "164131.685000", "164132.685000", "164133.685000", "164134.685000", "164135.685000", "164136.685000", "164137.685000", "164138.685000", "164139.685000", "164140.685000", "164141.685000", "164142.685000", "164143.685000", "164144.685000", "164145.685000", "164146.685000", "164147.685000", "164148.685000", "164149.685000", "164150.685000", "164151.685000", "164152.685000", "164153.685000", "164154.685000", "164155.685000", "164156.685000", "164157.685000", "164158.685000", "164159.685000", "164200.685000", "164201.685000", "164202.685000", "164203.685000", "164204.685000", "164205.685000", "164206.685000", "164207.685000", "164208.685000", "164209.685000", "164210.685000", "164211.685000", "164212.685000", "164213.685000", "164214.685000", "164215.685000", "164216.685000", "164217.685000", "164218.685000", "164219.685000", "164220.685000", "164221.685000", "164222.685000", "164223.685000", "164224.685000", "164225.685000", "164226.685000", "164227.685000", "164228.685000", "164229.685000", "164230.685000", "164231.685000", "164232.685000", "164233.685000", "164234.685000", "164235.685000", "164236.685000", "164237.685000", "164238.685000", "164239.685000", "164240.685000", "164241.685000", "164242.685000", "164243.685000", "164244.685000", "164245.685000", "164246.685000", "164247.685000"],
      "ContentTime": ["164033.183000", "164053.145000", "164053.148000", "164053.151000", "164053.154000", "164053.157000", "164053.166000", "164053.169000", "164053.172000", "164053.175000", "164053.178000", "164053.181000", "164053.184000", "164053.187000", "164053.190000", "164053.193000", "164053.196000", "164053.206000", "164053.209000", "164053.212000", "164053.215000", "164053.218000", "164053.220000", "164053.224000", "164053.226000", "164053.229000", "164053.232000", "164053.236000", "164053.239000", "164113.145000", "164113.149000", "164113.152000", "164113.154000", "164113.157000", "164113.160000", "164113.163000", "164113.166000", "164113.171000", "164113.174000", "164113.177000", "164113.180000", "164113.183000", "164113.186000", "164113.189000", "164113.192000", "164113.195000", "164113.198000", "164113.201000", "164113.204000", "164113.207000", "164113.210000", "164113.213000", "164113.216000", "164113.219000", "164113.222000", "164113.225000", "164113.228000", "164133.146000", "164133.149000", "164133.163000", "164133.166000", "164133.169000", "164133.172000", "164133.175000", "164133.178000", "164133.181000", "164133.184000", "164133.187000", "164133.190000", "164133.193000", "164133.196000", "164133.199000", "164133.202000", "164133.205000", "164133.208000", "164133.211000", "164133.214000", "164133.217000", "164133.220000", "164133.223000", "164133.226000", "164133.229000", "164133.232000", "164133.235000", "164133.238000", "164153.146000", "164153.149000", "164153.152000", "164153.155000", "164153.158000", "164153.161000", "164153.164000", "164153.167000", "164153.170000", "164153.173000", "164153.176000", "164153.179000", "164153.182000", "164153.185000", "164153.188000", "164153.191000", "164153.194000", "164153.197000", "164153.200000", "164153.210000", "164153.213000", "164153.216000", "164153.219000", "164153.222000", "164153.225000", "164153.228000", "164153.231000", "164153.235000", "164213.146000", "164213.149000", "164213.152000", "164213.155000", "164213.158000", "164213.161000", "164213.164000", "164213.167000", "164213.170000", "164213.173000", "164213.176000", "164213.179000", "164213.182000", "164213.185000", "164213.188000", "164213.191000", "164213.194000", "164213.197000", "164213.200000", "164213.203000", "164213.206000", "164213.209000", "164213.212000", "164213.215000", "164213.218000", "164213.221000", "164213.224000", "164213.227000", "164213.230000", "164233.146000", "164233.150000", "164233.153000", "164233.156000", "164233.159000", "164233.162000", "164233.165000", "164233.168000", "164233.171000", "164233.174000", "164233.177000", "164233.180000", "164233.183000", "164233.186000", "164233.189000", "164233.192000", "164233.195000", "164233.198000", "164233.201000", "164233.204000", "164233.207000", "164233.210000", "164233.213000", "164233.216000", "164233.232000", "164233.235000", "164233.238000", "164233.241000", "164249.766000", "164249.770000", "164249.773000", "164249.776000", "164249.779000", "164249.782000", "164249.785000", "164249.788000", "164249.791000", "164249.794000", "164249.797000", "164249.800000", "164249.803000", "164249.806000", "164249.809000", "164249.812000", "164249.815000", "164249.818000", "164249.821000", "164249.824000", "164249.827000", "164249.830000"],
      "InstanceCreationTime": ["164033.183000", "164053.145000", "164053.148000", "164053.151000", "164053.154000", "164053.157000", "164053.166000", "164053.169000", "164053.172000", "164053.175000", "164053.178000", "164053.181000", "164053.184000", "164053.187000", "164053.190000", "164053.193000", "164053.196000", "164053.206000", "164053.209000", "164053.212000", "164053.215000", "164053.218000", "164053.220000", "164053.224000", "164053.226000", "164053.229000", "164053.232000", "164053.236000", "164053.239000", "164113.145000", "164113.149000", "164113.152000", "164113.154000", "164113.157000", "164113.160000", "164113.163000", "164113.166000", "164113.171000", "164113.174000", "164113.177000", "164113.180000", "164113.183000", "164113.186000", "164113.189000", "164113.192000", "164113.195000", "164113.198000", "164113.201000", "164113.204000", "164113.207000", "164113.210000", "164113.213000", "164113.216000", "164113.219000", "164113.222000", "164113.225000", "164113.228000", "164133.146000", "164133.149000", "164133.163000", "164133.166000", "164133.169000", "164133.172000", "164133.175000", "164133.178000", "164133.181000", "164133.184000", "164133.187000", "164133.190000", "164133.193000", "164133.196000", "164133.199000", "164133.202000", "164133.205000", "164133.208000", "164133.211000", "164133.214000", "164133.217000", "164133.220000", "164133.223000", "164133.226000", "164133.229000", "164133.232000", "164133.235000", "164133.238000", "164153.146000", "164153.149000", "164153.152000", "164153.155000", "164153.158000", "164153.161000", "164153.164000", "164153.167000", "164153.170000", "164153.173000", "164153.176000", "164153.179000", "164153.182000", "164153.185000", "164153.188000", "164153.191000", "164153.194000", "164153.197000", "164153.200000", "164153.210000", "164153.213000", "164153.216000", "164153.219000", "164153.222000", "164153.225000", "164153.228000", "164153.231000", "164153.235000", "164213.146000", "164213.149000", "164213.152000", "164213.155000", "164213.158000", "164213.161000", "164213.164000", "164213.167000", "164213.170000", "164213.173000", "164213.176000", "164213.179000", "164213.182000", "164213.185000", "164213.188000", "164213.191000", "164213.194000", "164213.197000", "164213.200000", "164213.203000", "164213.206000", "164213.209000", "164213.212000", "164213.215000", "164213.218000", "164213.221000", "164213.224000", "164213.227000", "164213.230000", "164233.146000", "164233.150000", "164233.153000", "164233.156000", "164233.159000", "164233.162000", "164233.165000", "164233.168000", "164233.171000", "164233.174000", "164233.177000", "164233.180000", "164233.183000", "164233.186000", "164233.189000", "164233.192000", "164233.195000", "164233.198000", "164233.201000", "164233.204000", "164233.207000", "164233.210000", "164233.213000", "164233.216000", "164233.232000", "164233.235000", "164233.238000", "164233.241000", "164249.766000", "164249.770000", "164249.773000", "164249.776000", "164249.779000", "164249.782000", "164249.785000", "164249.788000", "164249.791000", "164249.794000", "164249.797000", "164249.800000", "164249.803000", "164249.806000", "164249.809000", "164249.812000", "164249.815000", "164249.818000", "164249.821000", "164249.824000", "164249.827000", "164249.830000"],
      "InstanceNumber": [1, 2, 3, 4, 5, 6, 7, 8, 9, 10, 11, 12, 13, 14, 15, 16, 17, 18, 19, 20, 21, 22, 23, 24, 25, 26, 27, 28, 29, 30, 31, 32, 33, 34, 35, 36, 37, 38, 39, 40, 41, 42, 43, 44, 45, 46, 47, 48, 49, 50, 51, 52, 53, 54, 55, 56, 57, 58, 59, 60, 61, 62, 63, 64, 65, 66, 67, 68, 69, 70, 71, 72, 73, 74, 75, 76, 77, 78, 79, 80, 81, 82, 83, 84, 85, 86, 87, 88, 89, 90, 91, 92, 93, 94, 95, 96, 97, 98, 99, 100, 101, 102, 103, 104, 105, 106, 107, 108, 109, 110, 111, 112, 113, 114, 115, 116, 117, 118, 119, 120, 121, 122, 123, 124, 125, 126, 127, 128, 129, 130, 131, 132, 133, 134, 135, 136, 137, 138, 139, 140, 141, 142, 143, 144, 145, 146, 147, 148, 149, 150, 151, 152, 153, 154, 155, 156, 157, 158, 159, 160, 161, 162, 163, 164, 165, 166, 167, 168, 169, 170, 171, 172, 173, 174, 175, 176, 177, 178, 179, 180, 181, 182, 183, 184, 185, 186, 187, 188, 189, 190, 191, 192],
      "LargestImagePixelValue": [31783, 30833, 30021, 29635, 29805, 29470, 29532, 29438, 29486, 29219, 29055, 29048, 29176, 29479, 29663, 29209, 29729, 29592, 29154, 29586, 29104, 29213, 29128, 29046, 28905, 29470, 29042, 29107, 29033, 29004, 29123, 29468, 28530, 28851, 29382, 29316, 28839, 29313, 30023, 28787, 29596, 29746, 29270, 29318, 29270, 28881, 29323, 29376, 28903, 28916, 29313, 28995, 29971, 29054, 29492, 28692, 28816, 28694, 29553, 28297, 29147, 29607, 28684, 29762, 29357, 28527, 30009, 29067, 28582, 29436, 28804, 29453, 29234, 28631, 29043, 29333, 28802, 29673, 28427, 29778, 29389, 28918, 28961, 28428, 28789, 28421, 27968, 29056, 27708, 28205, 28973, 28472, 28725, 28707, 28873, 29517, 29046, 28583, 31574, 28095, 28155, 28100, 28475, 28437, 28024, 28277, 27708, 28323, 27950, 28116, 28324, 27763, 28030, 28051, 28092, 28471, 28337, 27792, 27454, 27980, 27400, 27763, 27902, 27141, 27717, 28464, 27565, 27222, 27477, 27744, 27696, 28392, 28167, 28148, 28365, 28561, 28788, 29166, 28962, 29073, 29087, 29368, 28885, 29013, 28479, 27775, 29055, 28365, 28281, 27802, 27601, 27497, 28128, 27980, 27830, 28084, 28474, 28235, 28081, 28133, 28510, 28406, 30326, 28052, 28016, 28624, 28905, 28382, 28309, 28122, 28172, 28576, 27912, 28648, 28416, 29560, 28784, 28127, 28736, 28418, 28259, 29467, 29778, 28856, 29226, 28672, 27678, 28058, 28087, 28347, 28438, 28476],
      "WindowCenter": [8954.0, 8932.0, 8922.0, 8932.0, 8934.0, 8943.0, 8937.0, 8937.0, 8934.0, 8928.0, 8934.0, 8944.0, 8947.0, 8945.0, 8954.0, 8938.0, 8944.0, 8927.0, 8918.0, 8906.0, 8899.0, 8897.0, 8906.0, 8896.0, 8888.0, 8886.0, 8876.0, 8876.0, 8875.0, 8859.0, 8847.0, 8847.0, 8839.0, 8849.0, 8855.0, 8871.0, 8867.0, 8883.0, 8897.0, 8887.0, 8886.0, 8884.0, 8868.0, 8874.0, 8876.0, 8888.0, 8894.0, 8902.0, 8888.0, 8887.0, 8892.0, 8887.0, 8892.0, 8883.0, 8882.0, 8877.0, 8885.0, 8879.0, 8891.0, 8882.0, 8902.0, 8920.0, 8907.0, 8912.0, 8905.0, 8901.0, 8912.0, 8907.0, 8901.0, 8922.0, 8909.0, 8908.0, 8905.0, 8891.0, 8894.0, 8911.0, 8898.0, 8904.0, 8881.0, 8883.0, 8865.0, 8849.0, 8855.0, 8831.0, 8836.0, 8829.0, 8832.0, 8847.0, 8835.0, 8849.0, 8866.0, 8869.0, 8879.0, 8889.0, 8907.0, 8917.0, 8898.0, 8881.0, 8921.0, 8891.0, 8881.0, 8891.0, 8872.0, 8869.0, 8850.0, 8842.0, 8834.0, 8841.0, 8826.0, 8834.0, 8840.0, 8826.0, 8835.0, 8835.0, 8842.0, 8843.0, 8832.0, 8816.0, 8806.0, 8812.0, 8806.0, 8812.0, 8815.0, 8811.0, 8817.0, 8831.0, 8826.0, 8828.0, 8845.0, 8857.0, 8874.0, 8893.0, 8887.0, 8895.0, 8886.0, 8887.0, 8884.0, 8883.0, 8881.0, 8872.0, 8871.0, 8870.0, 8871.0, 8870.0, 8855.0, 8840.0, 8859.0, 8852.0, 8857.0, 8857.0, 8858.0, 8867.0, 8884.0, 8886.0, 8891.0, 8898.0, 8897.0, 8877.0, 8868.0, 8859.0, 8856.0, 8865.0, 8882.0, 8856.0, 8863.0, 8882.0, 8885.0, 8887.0, 8869.0, 8875.0, 8878.0, 8887.0, 8882.0, 8873.0, 8856.0, 8866.0, 8851.0, 8846.0, 8852.0, 8852.0, 8864.0, 8888.0, 8897.0, 8893.0, 8885.0, 8883.0, 8870.0, 8887.0, 8887.0, 8887.0, 8868.0, 8858.0],
      "WindowWidth": [18859.0, 18803.0, 18778.0, 18801.0, 18805.0, 18821.0, 18812.0, 18811.0, 18802.0, 18794.0, 18805.0, 18825.0, 18836.0, 18829.0, 18847.0, 18819.0, 18825.0, 18794.0, 18774.0, 18748.0, 18738.0, 18728.0, 18746.0, 18724.0, 18711.0, 18701.0, 18680.0, 18680.0, 18673.0, 18644.0, 18619.0, 18618.0, 18607.0, 18626.0, 18636.0, 18669.0, 18665.0, 18693.0, 18718.0, 18707.0, 18702.0, 18697.0, 18667.0, 18675.0, 18683.0, 18708.0, 18720.0, 18736.0, 18712.0, 18708.0, 18715.0, 18707.0, 18711.0, 18695.0, 18694.0, 18688.0, 18701.0, 18694.0, 18711.0, 18702.0, 18735.0, 18772.0, 18749.0, 18757.0, 18749.0, 18747.0, 18758.0, 18754.0, 18745.0, 18779.0, 18759.0, 18752.0, 18742.0, 18718.0, 18719.0, 18753.0, 18727.0, 18737.0, 18694.0, 18687.0, 18653.0, 18626.0, 18634.0, 18590.0, 18596.0, 18586.0, 18594.0, 18619.0, 18607.0, 18630.0, 18662.0, 18669.0, 18690.0, 18712.0, 18747.0, 18766.0, 18727.0, 18694.0, 18758.0, 18714.0, 18691.0, 18710.0, 18669.0, 18662.0, 18623.0, 18609.0, 18594.0, 18606.0, 18581.0, 18597.0, 18604.0, 18584.0, 18601.0, 18601.0, 18612.0, 18613.0, 18588.0, 18559.0, 18536.0, 18546.0, 18538.0, 18546.0, 18554.0, 18551.0, 18561.0, 18584.0, 18578.0, 18587.0, 18620.0, 18647.0, 18681.0, 18718.0, 18709.0, 18724.0, 18706.0, 18714.0, 18701.0, 18698.0, 18692.0, 18673.0, 18668.0, 18667.0, 18666.0, 18664.0, 18637.0, 18611.0, 18642.0, 18631.0, 18645.0, 18646.0, 18649.0, 18669.0, 18701.0, 18708.0, 18722.0, 18731.0, 18728.0, 18687.0, 18670.0, 18652.0, 18644.0, 18660.0, 18682.0, 18644.0, 18658.0, 18694.0, 18702.0, 18708.0, 18671.0, 18680.0, 18691.0, 18706.0, 18698.0, 18672.0, 18639.0, 18651.0, 18624.0, 18617.0, 18628.0, 18630.0, 18660.0, 18702.0, 18718.0, 18716.0, 18703.0, 18697.0, 18681.0, 18711.0, 18708.0, 18707.0, 18664.0, 18642.0]
    },
    "slices": {}
  },
  "NumberOfVolumes": 192
}