{
  "AcquisitionMatrixPE": 104,
  "AcquisitionNumber": 1,
  "AcquisitionTime": "11:31:35.452500",
  "BandwidthPerPixelPhaseEncode": 16.578,
  "BaseResolution": 104,
  "BodyPartExamined": "BRAIN",
  "ConsistencyInfo": "N4_VE11C_LATEST_20160120",
  "ConversionSoftware": "dcm2niix",
  "ConversionSoftwareVersion": "v1.0.20190902",
  "DerivedVendorReportedEchoSpacing": 0.000580009,
  "DeviceSerialNumber": "166018",
  "DwellTime": 2.1e-06,
  "EchoTime": 0.037,
  "EchoTrainLength": 104,
  "EffectiveEchoSpacing": 0.000580009,
  "FlipAngle": 68,
  "ImageComments": "Unaliased_MB6_PE3_LB",
  "ImageOrientationPatientDICOM": [0.994698, -0.0553282, 0.0866878, 0.0641499, 0.99266, -0.102526],
  "ImageType": [
    "ORIGINAL",
    "PRIMARY",
    "M",
    "MB",
    "ND",
    "MOSAIC"
],
  "ImagingFrequency": 123.187,
  "InPlanePhaseEncodingDirectionDICOM": "COL",
  "InstitutionAddress": "Washington_Place_6_NYC_NYC_US_10003",
  "InstitutionName": "NYU_Center_for_Brain_Imaging",
  "InstitutionalDepartmentName": "Department",
  "MRAcquisitionType": "2D",
  "MagneticFieldStrength": 3,
  "Manufacturer": "Siemens",
  "ManufacturersModelName": "Prisma",
  "Modality": "MR",
  "MultibandAccelerationFactor": 6,
  "PartialFourier": 1,
  "PatientPosition": "HFS",
  "PercentPhaseFOV": 100,
  "PhaseEncodingDirection": "j",
  "PhaseEncodingSteps": 104,
  "PhaseResolution": 1,
  "PixelBandwidth": 2290,
  "ProcedureStepDescription": "Investigators_Winawer",
  "ProtocolName": "cmrr_mbepi_s6_2mm_66sl_PA_TR1.0",
  "PulseSequenceDetails": "%CustomerSeq%_cmrr_mbep2d_bold",
  "ReceiveCoilActiveElements": "HC1-7",
  "ReceiveCoilName": "HeadNeck_64",
  "ReconMatrixPE": 104,
  "RepetitionTime": 1,
  "SAR": 0.0783302,
  "ScanOptions": "FS",
  "ScanningSequence": "EP",
  "SequenceName": "epfid2d1_104",
  "SequenceVariant": "SK_SS",
  "SeriesDescription": "cmrr_mbepi_s6_2mm_66sl_PA_TR1.0",
  "SeriesNumber": 12,
  "ShimSetting": [289, -12569, -8490, 291, -7, 19, -115, -20],
  "SliceThickness": 2,
  "SliceTiming": [0, 0.535, 0.0875, 0.6225, 0.1775, 0.7125, 0.2675, 0.8, 0.355, 0.89, 0.445, 0, 0.535, 0.0875, 0.6225, 0.1775, 0.7125, 0.2675, 0.8, 0.355, 0.89, 0.445, 0, 0.535, 0.0875, 0.6225, 0.1775, 0.7125, 0.2675, 0.8, 0.355, 0.89, 0.445, 0, 0.535, 0.0875, 0.6225, 0.1775, 0.7125, 0.2675, 0.8, 0.355, 0.89, 0.445, 0, 0.535, 0.0875, 0.6225, 0.1775, 0.7125, 0.2675, 0.8, 0.355, 0.89, 0.445, 0, 0.535, 0.0875, 0.6225, 0.1775, 0.7125, 0.2675, 0.8, 0.355, 0.89, 0.445],
  "SoftwareVersions": "syngo_MR_E11",
  "SpacingBetweenSlices": 2,
  "StationName": "AWP166018",
  "TaskName": "prf",
  "TotalReadoutTime": 0.0597409,
  "TxRefAmp": 208.721,
  "WipMemBlock": "a466239c-b909-428d-8fb1-260c82f4a55c||Sequence: ve11c/master r/ab69a6c; Apr 19 2017 09:47:47 by eja",
  "dcmmeta_affine": [
    [-1.9893958568572998, 0.12829983234405518, 0.16075778007507324, 101.37809753417969],
    [0.11065631359815598, 1.9853192567825317, -0.21508699655532837, -65.62957763671875],
    [0.17337557673454285, 0.20505216717720032, 1.9818916320800781, -67.0409164428711],
    [0.0, 0.0, 0.0, 1.0]
],
  "dcmmeta_reorient_transform": [
    [0.0, -1.0, 0.0, 103.0],
    [1.0, 0.0, 0.0, 0.0],
    [0.0, 0.0, 1.0, 0.0],
    [0.0, 0.0, 0.0, 1.0]
],
  "dcmmeta_shape": [104, 104, 66, 192],
  "dcmmeta_slice_dim": 2,
  "dcmmeta_version": 0.6,
  "global": {
    "const": {
      "AccessionNumber": "j66ik478",
      "AcquisitionMatrix": [104, 0, 0, 104],
      "AngioFlag": "N",
      "BitsAllocated": 16,
      "BitsStored": 16,
      "BodyPartExamined": "BRAIN",
      "Columns": 936,
      "EchoNumbers": 1,
      "EchoTime": 37.0,
      "EchoTrainLength": 104,
      "FlipAngle": 68.0,
      "HighBit": 15,
      "ImageOrientationPatient": [0.99469795526587, -0.0553281562539, 0.08668778988672, 0.06414991394605, 0.99265965485144, -0.1025260853195],
      "ImagePositionPatient": [-995.55441012872, -918.71811429132, -32.743077795519],
      "ImageType": [
        "ORIGINAL",
        "PRIMARY",
        "M",
        "MB",
        "ND",
        "MOSAIC"
],
      "ImagedNucleus": "1H",
      "ImagingFrequency": 123.187278,
      "InPlanePhaseEncodingDirection": "COL",
      "MRAcquisitionType": "2D",
      "MagneticFieldStrength": 3.0,
      "Manufacturer": "SIEMENS",
      "ManufacturerModelName": "Prisma",
      "Modality": "MR",
      "NumberOfAverages": 1.0,
      "NumberOfPhaseEncodingSteps": 104,
      "PercentPhaseFieldOfView": 100.0,
      "PercentSampling": 100.0,
      "PerformedProcedureStepStartTime": "111750.314000",
      "PhotometricInterpretation": "MONOCHROME2",
      "PixelBandwidth": 2290.0,
      "PixelRepresentation": 0,
      "PixelSpacing": [2.0, 2.0],
      "ProtocolName": "cmrr_mbepi_s6_2mm_66sl_PA_TR1.0",
      "RepetitionTime": 1000.0,
      "Rows": 936,
      "SAR": 0.07833016078607,
      "SamplesPerPixel": 1,
      "ScanOptions": "FS",
      "ScanningSequence": "EP",
      "SequenceName": "epfid2d1_104",
      "SequenceVariant": [
        "SK",
        "SS"
],
      "SeriesDescription": "cmrr_mbepi_s6_2mm_66sl_PA_TR1.0",
      "SeriesNumber": 12,
      "SeriesTime": "113302.241000",
      "SliceLocation": -51.227218599238,
      "SliceThickness": 2.0,
      "SmallestImagePixelValue": 0,
      "SoftwareVersions": "syngo MR E11",
      "SpacingBetweenSlices": 1.9999999826765,
      "SpecificCharacterSet": "ISO_IR 100",
      "StudyID": "2",
      "StudyTime": "111750.025000",
      "TransmitCoilName": "Body",
      "VariableFlipAngleFlag": "N",
      "WindowCenterWidthExplanation": "Algo1",
      "dBdt": 0.0},
    "slices": {}
  },
  "time": {
    "samples": {
      "AcquisitionNumber": [1, 2, 3, 4, 5, 6, 7, 8, 9, 10, 11, 12, 13, 14, 15, 16, 17, 18, 19, 20, 21, 22, 23, 24, 25, 26, 27, 28, 29, 30, 31, 32, 33, 34, 35, 36, 37, 38, 39, 40, 41, 42, 43, 44, 45, 46, 47, 48, 49, 50, 51, 52, 53, 54, 55, 56, 57, 58, 59, 60, 61, 62, 63, 64, 65, 66, 67, 68, 69, 70, 71, 72, 73, 74, 75, 76, 77, 78, 79, 80, 81, 82, 83, 84, 85, 86, 87, 88, 89, 90, 91, 92, 93, 94, 95, 96, 97, 98, 99, 100, 101, 102, 103, 104, 105, 106, 107, 108, 109, 110, 111, 112, 113, 114, 115, 116, 117, 118, 119, 120, 121, 122, 123, 124, 125, 126, 127, 128, 129, 130, 131, 132, 133, 134, 135, 136, 137, 138, 139, 140, 141, 142, 143, 144, 145, 146, 147, 148, 149, 150, 151, 152, 153, 154, 155, 156, 157, 158, 159, 160, 161, 162, 163, 164, 165, 166, 167, 168, 169, 170, 171, 172, 173, 174, 175, 176, 177, 178, 179, 180, 181, 182, 183, 184, 185, 186, 187, 188, 189, 190, 191, 192],
      "AcquisitionTime": ["113135.452500", "113136.452500", "113137.452500", "113138.452500", "113139.452500", "113140.452500", "113141.452500", "113142.452500", "113143.452500", "113144.452500", "113145.452500", "113146.452500", "113147.452500", "113148.452500", "113149.452500", "113150.452500", "113151.452500", "113152.452500", "113153.452500", "113154.452500", "113155.452500", "113156.452500", "113157.452500", "113158.452500", "113159.452500", "113200.452500", "113201.452500", "113202.452500", "113203.452500", "113204.452500", "113205.452500", "113206.452500", "113207.452500", "113208.452500", "113209.452500", "113210.452500", "113211.452500", "113212.452500", "113213.452500", "113214.452500", "113215.452500", "113216.452500", "113217.452500", "113218.452500", "113219.452500", "113220.452500", "113221.452500", "113222.452500", "113223.452500", "113224.452500", "113225.452500", "113226.452500", "113227.452500", "113228.452500", "113229.452500", "113230.452500", "113231.452500", "113232.452500", "113233.452500", "113234.452500", "113235.452500", "113236.452500", "113237.452500", "113238.452500", "113239.452500", "113240.452500", "113241.452500", "113242.452500", "113243.452500", "113244.452500", "113245.452500", "113246.452500", "113247.452500", "113248.452500", "113249.452500", "113250.452500", "113251.452500", "113252.452500", "113253.452500", "113254.452500", "113255.452500", "113256.452500", "113257.452500", "113258.452500", "113259.452500", "113300.452500", "113301.452500", "113302.452500", "113303.452500", "113304.452500", "113305.452500", "113306.452500", "113307.452500", "113308.452500", "113309.452500", "113310.452500", "113311.452500", "113312.452500", "113313.452500", "113314.452500", "113315.452500", "113316.452500", "113317.452500", "113318.452500", "113319.452500", "113320.452500", "113321.452500", "113322.452500", "113323.452500", "113324.452500", "113325.452500", "113326.452500", "113327.452500", "113328.452500", "113329.452500", "113330.452500", "113331.452500", "113332.452500", "113333.452500", "113334.452500", "113335.452500", "113336.452500", "113337.452500", "113338.452500", "113339.452500", "113340.452500", "113341.452500", "113342.452500", "113343.452500", "113344.452500", "113345.452500", "113346.452500", "113347.452500", "113348.452500", "113349.452500", "113350.452500", "113351.452500", "113352.452500", "113353.452500", "113354.452500", "113355.452500", "113356.452500", "113357.452500", "113358.452500", "113359.452500", "113400.452500", "113401.452500", "113402.452500", "113403.452500", "113404.452500", "113405.452500", "113406.452500", "113407.452500", "113408.452500", "113409.452500", "113410.452500", "113411.452500", "113412.452500", "113413.452500", "113414.452500", "113415.452500", "113416.452500", "113417.452500", "113418.452500", "113419.452500", "113420.452500", "113421.452500", "113422.452500", "113423.452500", "113424.452500", "113425.452500", "113426.452500", "113427.452500", "113428.452500", "113429.452500", "113430.452500", "113431.452500", "113432.452500", "113433.452500", "113434.452500", "113435.452500", "113436.452500", "113437.452500", "113438.452500", "113439.452500", "113440.452500", "113441.452500", "113442.452500", "113443.452500", "113444.452500", "113445.452500", "113446.452500"],
      "ContentTime": ["113302.243000", "113302.247000", "113302.256000", "113302.259000", "113302.262000", "113302.265000", "113302.269000", "113302.272000", "113302.275000", "113302.278000", "113302.281000", "113302.284000", "113302.287000", "113302.290000", "113302.293000", "113302.296000", "113302.299000", "113302.302000", "113302.314000", "113302.317000", "113302.320000", "113302.323000", "113302.327000", "113302.330000", "113302.333000", "113302.336000", "113302.339000", "113302.342000", "113302.345000", "113302.348000", "113302.351000", "113302.354000", "113302.357000", "113302.360000", "113302.363000", "113302.366000", "113302.369000", "113302.372000", "113302.375000", "113302.378000", "113302.381000", "113302.384000", "113302.388000", "113322.195000", "113322.198000", "113322.201000", "113322.210000", "113322.213000", "113322.216000", "113322.219000", "113322.222000", "113322.225000", "113322.228000", "113322.232000", "113322.236000", "113322.239000", "113322.242000", "113322.245000", "113322.248000", "113322.251000", "113322.254000", "113322.257000", "113322.260000", "113322.263000", "113322.266000", "113322.270000", "113322.273000", "113322.276000", "113322.279000", "113322.282000", "113322.285000", "113342.195000", "113342.198000", "113342.201000", "113342.205000", "113342.210000", "113342.214000", "113342.217000", "113342.220000", "113342.223000", "113342.226000", "113342.229000", "113342.232000", "113342.237000", "113342.240000", "113342.243000", "113342.247000", "113342.250000", "113342.253000", "113342.256000", "113342.259000", "113342.263000", "113342.266000", "113342.269000", "113342.272000", "113342.275000", "113342.278000", "113342.281000", "113342.297000", "113342.300000", "113402.195000", "113402.198000", "113402.201000", "113402.204000", "113402.207000", "113402.210000", "113402.213000", "113402.216000", "113402.219000", "113402.222000", "113402.225000", "113402.229000", "113402.232000", "113402.236000", "113402.239000", "113402.242000", "113402.246000", "113402.249000", "113402.252000", "113402.255000", "113402.258000", "113402.264000", "113402.267000", "113402.270000", "113402.273000", "113402.276000", "113402.279000", "113402.282000", "113422.195000", "113422.198000", "113422.201000", "113422.205000", "113422.208000", "113422.212000", "113422.215000", "113422.219000", "113422.222000", "113422.225000", "113422.228000", "113422.231000", "113422.235000", "113422.238000", "113422.241000", "113422.245000", "113422.248000", "113422.251000", "113422.254000", "113422.257000", "113422.260000", "113422.263000", "113422.266000", "113422.270000", "113422.273000", "113422.276000", "113422.279000", "113422.283000", "113442.194000", "113442.197000", "113442.200000", "113442.204000", "113442.207000", "113442.210000", "113442.213000", "113442.216000", "113442.219000", "113442.222000", "113442.225000", "113442.228000", "113442.231000", "113442.236000", "113442.239000", "113442.242000", "113442.245000", "113442.248000", "113442.251000", "113442.254000", "113442.257000", "113442.260000", "113442.263000", "113442.267000", "113442.270000", "113442.273000", "113442.277000", "113442.280000", "113448.432000", "113448.435000", "113448.438000", "113448.442000", "113448.445000", "113448.448000", "113448.451000", "113448.454000"],
      "InstanceCreationTime": ["113302.243000", "113302.247000", "113302.256000", "113302.259000", "113302.262000", "113302.265000", "113302.269000", "113302.272000", "113302.275000", "113302.278000", "113302.281000", "113302.284000", "113302.287000", "113302.290000", "113302.293000", "113302.296000", "113302.299000", "113302.302000", "113302.314000", "113302.317000", "113302.320000", "113302.323000", "113302.327000", "113302.330000", "113302.333000", "113302.336000", "113302.339000", "113302.342000", "113302.345000", "113302.348000", "113302.351000", "113302.354000", "113302.357000", "113302.360000", "113302.363000", "113302.366000", "113302.369000", "113302.372000", "113302.375000", "113302.378000", "113302.381000", "113302.384000", "113302.388000", "113322.195000", "113322.198000", "113322.201000", "113322.210000", "113322.213000", "113322.216000", "113322.219000", "113322.222000", "113322.225000", "113322.228000", "113322.232000", "113322.236000", "113322.239000", "113322.242000", "113322.245000", "113322.248000", "113322.251000", "113322.254000", "113322.257000", "113322.260000", "113322.263000", "113322.266000", "113322.270000", "113322.273000", "113322.276000", "113322.279000", "113322.282000", "113322.285000", "113342.195000", "113342.198000", "113342.201000", "113342.205000", "113342.210000", "113342.214000", "113342.217000", "113342.220000", "113342.223000", "113342.226000", "113342.229000", "113342.232000", "113342.237000", "113342.240000", "113342.243000", "113342.247000", "113342.250000", "113342.253000", "113342.256000", "113342.259000", "113342.263000", "113342.266000", "113342.269000", "113342.272000", "113342.275000", "113342.278000", "113342.281000", "113342.297000", "113342.300000", "113402.195000", "113402.198000", "113402.201000", "113402.204000", "113402.207000", "113402.210000", "113402.213000", "113402.216000", "113402.219000", "113402.222000", "113402.225000", "113402.229000", "113402.232000", "113402.236000", "113402.239000", "113402.242000", "113402.246000", "113402.249000", "113402.252000", "113402.255000", "113402.258000", "113402.264000", "113402.267000", "113402.270000", "113402.273000", "113402.276000", "113402.279000", "113402.282000", "113422.195000", "113422.198000", "113422.201000", "113422.205000", "113422.208000", "113422.212000", "113422.215000", "113422.219000", "113422.222000", "113422.225000", "113422.228000", "113422.231000", "113422.235000", "113422.238000", "113422.241000", "113422.245000", "113422.248000", "113422.251000", "113422.254000", "113422.257000", "113422.260000", "113422.263000", "113422.266000", "113422.270000", "113422.273000", "113422.276000", "113422.279000", "113422.283000", "113442.194000", "113442.197000", "113442.200000", "113442.204000", "113442.207000", "113442.210000", "113442.213000", "113442.216000", "113442.219000", "113442.222000", "113442.225000", "113442.228000", "113442.231000", "113442.236000", "113442.239000", "113442.242000", "113442.245000", "113442.248000", "113442.251000", "113442.254000", "113442.257000", "113442.260000", "113442.263000", "113442.267000", "113442.270000", "113442.273000", "113442.277000", "113442.280000", "113448.432000", "113448.435000", "113448.438000", "113448.442000", "113448.445000", "113448.448000", "113448.451000", "113448.454000"],
      "InstanceNumber": [1, 2, 3, 4, 5, 6, 7, 8, 9, 10, 11, 12, 13, 14, 15, 16, 17, 18, 19, 20, 21, 22, 23, 24, 25, 26, 27, 28, 29, 30, 31, 32, 33, 34, 35, 36, 37, 38, 39, 40, 41, 42, 43, 44, 45, 46, 47, 48, 49, 50, 51, 52, 53, 54, 55, 56, 57, 58, 59, 60, 61, 62, 63, 64, 65, 66, 67, 68, 69, 70, 71, 72, 73, 74, 75, 76, 77, 78, 79, 80, 81, 82, 83, 84, 85, 86, 87, 88, 89, 90, 91, 92, 93, 94, 95, 96, 97, 98, 99, 100, 101, 102, 103, 104, 105, 106, 107, 108, 109, 110, 111, 112, 113, 114, 115, 116, 117, 118, 119, 120, 121, 122, 123, 124, 125, 126, 127, 128, 129, 130, 131, 132, 133, 134, 135, 136, 137, 138, 139, 140, 141, 142, 143, 144, 145, 146, 147, 148, 149, 150, 151, 152, 153, 154, 155, 156, 157, 158, 159, 160, 161, 162, 163, 164, 165, 166, 167, 168, 169, 170, 171, 172, 173, 174, 175, 176, 177, 178, 179, 180, 181, 182, 183, 184, 185, 186, 187, 188, 189, 190, 191, 192],
      "LargestImagePixelValue": [35994, 35686, 34984, 45970, 34593, 33677, 33972, 38107, 35139, 33584, 33913, 33813, 37021, 33856, 33737, 33546, 33863, 38724, 33817, 33893, 33479, 34151, 33553, 33920, 33797, 34284, 33641, 33460, 33620, 33826, 33786, 33785, 33828, 34096, 33922, 38213, 33585, 33439, 33883, 33599, 34208, 33930, 34487, 33916, 34453, 34654, 37103, 33466, 33475, 33817, 36499, 34520, 33979, 34624, 33864, 36913, 35340, 34049, 38591, 34089, 33670, 33812, 34043, 38169, 35129, 37682, 33804, 34081, 34087, 40020, 33466, 33970, 37446, 33580, 33717, 33334, 33912, 34303, 33864, 34073, 33972, 34071, 33879, 33782, 41381, 35202, 35460, 34131, 33996, 33652, 33349, 33720, 33393, 36415, 34235, 33741, 34070, 34276, 34208, 33685, 39405, 33472, 33519, 33562, 33403, 37708, 36169, 34339, 33744, 33412, 33595, 33753, 33247, 33488, 33786, 35799, 33234, 33920, 34159, 33470, 33292, 33514, 34287, 35139, 34122, 33515, 34148, 33902, 33537, 34098, 38458, 33711, 38844, 33926, 33956, 37115, 34253, 34416, 35785, 35771, 33213, 33714, 34605, 33869, 33957, 34081, 33707, 33975, 33596, 33563, 38704, 33660, 33506, 33235, 38355, 33636, 34054, 33972, 34108, 33784, 33495, 34160, 33516, 33968, 33821, 33887, 33807, 33674, 33746, 39956, 33645, 35762, 33537, 36362, 34385, 33855, 33359, 33704, 33988, 34063, 33661, 39472, 34753, 38152, 33857, 33565, 34089, 33363, 33980, 33285, 33770, 33591],
      "WindowCenter": [8991.0, 8957.0, 8930.0, 9025.0, 8922.0, 8916.0, 8925.0, 8964.0, 8933.0, 8922.0, 8925.0, 8932.0, 8970.0, 8926.0, 8917.0, 8914.0, 8913.0, 8953.0, 8911.0, 8913.0, 8922.0, 8931.0, 8934.0, 8933.0, 8936.0, 8924.0, 8908.0, 8909.0, 8907.0, 8913.0, 8905.0, 8904.0, 8898.0, 8903.0, 8904.0, 8948.0, 8908.0, 8899.0, 8904.0, 8912.0, 8929.0, 8924.0, 8928.0, 8916.0, 8914.0, 8910.0, 8932.0, 8894.0, 8887.0, 8893.0, 8933.0, 8918.0, 8924.0, 8937.0, 8930.0, 8948.0, 8929.0, 8915.0, 8956.0, 8913.0, 8905.0, 8912.0, 8914.0, 8949.0, 8934.0, 8958.0, 8922.0, 8922.0, 8923.0, 8985.0, 8936.0, 8945.0, 8991.0, 8941.0, 8938.0, 8915.0, 8919.0, 8915.0, 8909.0, 8907.0, 8909.0, 8907.0, 8906.0, 8906.0, 8973.0, 8924.0, 8930.0, 8911.0, 8898.0, 8891.0, 8891.0, 8897.0, 8909.0, 8938.0, 8917.0, 8910.0, 8911.0, 8908.0, 8917.0, 8910.0, 8963.0, 8901.0, 8899.0, 8894.0, 8885.0, 8944.0, 8943.0, 8940.0, 8929.0, 8930.0, 8911.0, 8909.0, 8900.0, 8906.0, 8907.0, 8924.0, 8902.0, 8912.0, 8913.0, 8910.0, 8902.0, 8909.0, 8914.0, 8938.0, 8941.0, 8946.0, 8944.0, 8937.0, 8932.0, 8928.0, 8952.0, 8902.0, 8953.0, 8906.0, 8896.0, 8933.0, 8906.0, 8921.0, 8940.0, 8944.0, 8906.0, 8903.0, 8905.0, 8882.0, 8881.0, 8886.0, 8880.0, 8897.0, 8899.0, 8907.0, 8957.0, 8902.0, 8911.0, 8912.0, 8961.0, 8912.0, 8917.0, 8909.0, 8914.0, 8918.0, 8928.0, 8943.0, 8920.0, 8911.0, 8900.0, 8898.0, 8900.0, 8908.0, 8910.0, 8978.0, 8919.0, 8960.0, 8937.0, 8962.0, 8934.0, 8918.0, 8903.0, 8902.0, 8925.0, 8916.0, 8907.0, 8979.0, 8938.0, 8968.0, 8932.0, 8919.0, 8916.0, 8893.0, 8898.0, 8899.0, 8917.0, 8926.0],
      "WindowWidth": [19124.0, 19028.0, 18960.0, 19107.0, 18937.0, 18928.0, 18946.0, 19000.0, 18951.0, 18931.0, 18941.0, 18953.0, 19019.0, 18943.0, 18922.0, 18914.0, 18909.0, 18970.0, 18904.0, 18911.0, 18935.0, 18952.0, 18962.0, 18958.0, 18969.0, 18936.0, 18907.0, 18909.0, 18902.0, 18911.0, 18896.0, 18895.0, 18887.0, 18893.0, 18896.0, 18967.0, 18905.0, 18885.0, 18891.0, 18909.0, 18944.0, 18940.0, 18946.0, 18922.0, 18914.0, 18901.0, 18927.0, 18868.0, 18854.0, 18869.0, 18938.0, 18918.0, 18937.0, 18959.0, 18945.0, 18972.0, 18940.0, 18914.0, 18978.0, 18909.0, 18894.0, 18908.0, 18915.0, 18965.0, 18948.0, 18986.0, 18930.0, 18931.0, 18936.0, 19036.0, 18965.0, 18983.0, 19063.0, 18977.0, 18971.0, 18923.0, 18928.0, 18915.0, 18907.0, 18904.0, 18909.0, 18898.0, 18896.0, 18895.0, 19002.0, 18926.0, 18934.0, 18904.0, 18880.0, 18866.0, 18869.0, 18879.0, 18907.0, 18951.0, 18924.0, 18912.0, 18915.0, 18905.0, 18920.0, 18908.0, 18992.0, 18890.0, 18886.0, 18879.0, 18863.0, 18964.0, 18969.0, 18972.0, 18954.0, 18954.0, 18910.0, 18902.0, 18883.0, 18892.0, 18897.0, 18923.0, 18892.0, 18908.0, 18909.0, 18910.0, 18896.0, 18912.0, 18916.0, 18960.0, 18970.0, 18988.0, 18980.0, 18965.0, 18960.0, 18948.0, 18976.0, 18894.0, 18968.0, 18899.0, 18875.0, 18938.0, 18899.0, 18926.0, 18958.0, 18971.0, 18903.0, 18894.0, 18893.0, 18847.0, 18843.0, 18853.0, 18843.0, 18877.0, 18888.0, 18904.0, 18984.0, 18895.0, 18913.0, 18919.0, 18997.0, 18915.0, 18922.0, 18904.0, 18915.0, 18929.0, 18947.0, 18978.0, 18929.0, 18911.0, 18887.0, 18881.0, 18890.0, 18906.0, 18914.0, 19023.0, 18931.0, 19003.0, 18965.0, 19007.0, 18952.0, 18921.0, 18896.0, 18892.0, 18937.0, 18915.0, 18902.0, 19019.0, 18958.0, 19003.0, 18950.0, 18925.0, 18912.0, 18867.0, 18877.0, 18883.0, 18920.0, 18941.0]
    },
    "slices": {}
  },
  "NumberOfVolumes": 192
}