{
  "AcquisitionMatrixPE": 104,
  "AcquisitionNumber": 1,
  "AcquisitionTime": "11:23:31.467500",
  "BandwidthPerPixelPhaseEncode": 16.578,
  "BaseResolution": 104,
  "BodyPartExamined": "BRAIN",
  "ConsistencyInfo": "N4_VE11C_LATEST_20160120",
  "ConversionSoftware": "dcm2niix",
  "ConversionSoftwareVersion": "v1.0.20190902",
  "DerivedVendorReportedEchoSpacing": 0.000580009,
  "DeviceSerialNumber": "166018",
  "DwellTime": 2.1e-06,
  "EchoTime": 0.037,
  "EchoTrainLength": 104,
  "EffectiveEchoSpacing": 0.000580009,
  "FlipAngle": 68,
  "ImageComments": "Unaliased_MB6_PE3_LB",
  "ImageOrientationPatientDICOM": [0.994698, -0.0553282, 0.0866878, 0.0641499, 0.99266, -0.102526],
  "ImageType": [
    "ORIGINAL",
    "PRIMARY",
    "M",
    "MB",
    "ND",
    "MOSAIC"
],
  "ImagingFrequency": 123.187,
  "InPlanePhaseEncodingDirectionDICOM": "COL",
  "InstitutionAddress": "Washington_Place_6_NYC_NYC_US_10003",
  "InstitutionName": "NYU_Center_for_Brain_Imaging",
  "InstitutionalDepartmentName": "Department",
  "MRAcquisitionType": "2D",
  "MagneticFieldStrength": 3,
  "Manufacturer": "Siemens",
  "ManufacturersModelName": "Prisma",
  "Modality": "MR",
  "MultibandAccelerationFactor": 6,
  "PartialFourier": 1,
  "PatientPosition": "HFS",
  "PercentPhaseFOV": 100,
  "PhaseEncodingDirection": "j",
  "PhaseEncodingSteps": 104,
  "PhaseResolution": 1,
  "PixelBandwidth": 2290,
  "ProcedureStepDescription": "Investigators_Winawer",
  "ProtocolName": "cmrr_mbepi_s6_2mm_66sl_PA_TR1.0",
  "PulseSequenceDetails": "%CustomerSeq%_cmrr_mbep2d_bold",
  "ReceiveCoilActiveElements": "HC1-7",
  "ReceiveCoilName": "HeadNeck_64",
  "ReconMatrixPE": 104,
  "RepetitionTime": 1,
  "SAR": 0.0783302,
  "ScanOptions": "FS",
  "ScanningSequence": "EP",
  "SequenceName": "epfid2d1_104",
  "SequenceVariant": "SK_SS",
  "SeriesDescription": "cmrr_mbepi_s6_2mm_66sl_PA_TR1.0",
  "SeriesNumber": 8,
  "ShimSetting": [289, -12569, -8490, 291, -7, 19, -115, -20],
  "SliceThickness": 2,
  "SliceTiming": [0, 0.535, 0.09, 0.625, 0.1775, 0.7125, 0.2675, 0.8025, 0.3575, 0.89, 0.445, 0, 0.535, 0.09, 0.625, 0.1775, 0.7125, 0.2675, 0.8025, 0.3575, 0.89, 0.445, 0, 0.535, 0.09, 0.625, 0.1775, 0.7125, 0.2675, 0.8025, 0.3575, 0.89, 0.445, 0, 0.535, 0.09, 0.625, 0.1775, 0.7125, 0.2675, 0.8025, 0.3575, 0.89, 0.445, 0, 0.535, 0.09, 0.625, 0.1775, 0.7125, 0.2675, 0.8025, 0.3575, 0.89, 0.445, 0, 0.535, 0.09, 0.625, 0.1775, 0.7125, 0.2675, 0.8025, 0.3575, 0.89, 0.445],
  "SoftwareVersions": "syngo_MR_E11",
  "SpacingBetweenSlices": 2,
  "StationName": "AWP166018",
  "TaskName": "prf",
  "TotalReadoutTime": 0.0597409,
  "TxRefAmp": 208.721,
  "WipMemBlock": "a466239c-b909-428d-8fb1-260c82f4a55c||Sequence: ve11c/master r/ab69a6c; Apr 19 2017 09:47:47 by eja",
  "dcmmeta_affine": [
    [-1.9893958568572998, 0.12829983234405518, 0.16075778007507324, 101.37809753417969],
    [0.11065631359815598, 1.9853192567825317, -0.21508699655532837, -65.62957763671875],
    [0.17337557673454285, 0.20505216717720032, 1.9818916320800781, -67.0409164428711],
    [0.0, 0.0, 0.0, 1.0]
],
  "dcmmeta_reorient_transform": [
    [0.0, -1.0, 0.0, 103.0],
    [1.0, 0.0, 0.0, 0.0],
    [0.0, 0.0, 1.0, 0.0],
    [0.0, 0.0, 0.0, 1.0]
],
  "dcmmeta_shape": [104, 104, 66, 192],
  "dcmmeta_slice_dim": 2,
  "dcmmeta_version": 0.6,
  "global": {
    "const": {
      "AccessionNumber": "j66ik478",
      "AcquisitionMatrix": [104, 0, 0, 104],
      "AngioFlag": "N",
      "BitsAllocated": 16,
      "BitsStored": 16,
      "BodyPartExamined": "BRAIN",
      "Columns": 936,
      "EchoNumbers": 1,
      "EchoTime": 37.0,
      "EchoTrainLength": 104,
      "FlipAngle": 68.0,
      "HighBit": 15,
      "ImageOrientationPatient": [0.99469795526587, -0.0553281562539, 0.08668778988672, 0.06414991394605, 0.99265965485144, -0.1025260853195],
      "ImagePositionPatient": [-995.55441012872, -918.71811429132, -32.743077795519],
      "ImageType": [
        "ORIGINAL",
        "PRIMARY",
        "M",
        "MB",
        "ND",
        "MOSAIC"
],
      "ImagedNucleus": "1H",
      "ImagingFrequency": 123.187278,
      "InPlanePhaseEncodingDirection": "COL",
      "MRAcquisitionType": "2D",
      "MagneticFieldStrength": 3.0,
      "Manufacturer": "SIEMENS",
      "ManufacturerModelName": "Prisma",
      "Modality": "MR",
      "NumberOfAverages": 1.0,
      "NumberOfPhaseEncodingSteps": 104,
      "PercentPhaseFieldOfView": 100.0,
      "PercentSampling": 100.0,
      "PerformedProcedureStepStartTime": "111750.314000",
      "PhotometricInterpretation": "MONOCHROME2",
      "PixelBandwidth": 2290.0,
      "PixelRepresentation": 0,
      "PixelSpacing": [2.0, 2.0],
      "ProtocolName": "cmrr_mbepi_s6_2mm_66sl_PA_TR1.0",
      "RepetitionTime": 1000.0,
      "Rows": 936,
      "SAR": 0.07833016078607,
      "SamplesPerPixel": 1,
      "ScanOptions": "FS",
      "ScanningSequence": "EP",
      "SequenceName": "epfid2d1_104",
      "SequenceVariant": [
        "SK",
        "SS"
],
      "SeriesDescription": "cmrr_mbepi_s6_2mm_66sl_PA_TR1.0",
      "SeriesNumber": 8,
      "SeriesTime": "112449.060000",
      "SliceLocation": -51.227218599238,
      "SliceThickness": 2.0,
      "SmallestImagePixelValue": 0,
      "SoftwareVersions": "syngo MR E11",
      "SpacingBetweenSlices": 1.9999999826765,
      "SpecificCharacterSet": "ISO_IR 100",
      "StudyID": "2",
      "StudyTime": "111750.025000",
      "TransmitCoilName": "Body",
      "VariableFlipAngleFlag": "N",
      "WindowCenterWidthExplanation": "Algo1",
      "dBdt": 0.0},
    "slices": {}
  },
  "time": {
    "samples": {
      "AcquisitionNumber": [1, 2, 3, 4, 5, 6, 7, 8, 9, 10, 11, 12, 13, 14, 15, 16, 17, 18, 19, 20, 21, 22, 23, 24, 25, 26, 27, 28, 29, 30, 31, 32, 33, 34, 35, 36, 37, 38, 39, 40, 41, 42, 43, 44, 45, 46, 47, 48, 49, 50, 51, 52, 53, 54, 55, 56, 57, 58, 59, 60, 61, 62, 63, 64, 65, 66, 67, 68, 69, 70, 71, 72, 73, 74, 75, 76, 77, 78, 79, 80, 81, 82, 83, 84, 85, 86, 87, 88, 89, 90, 91, 92, 93, 94, 95, 96, 97, 98, 99, 100, 101, 102, 103, 104, 105, 106, 107, 108, 109, 110, 111, 112, 113, 114, 115, 116, 117, 118, 119, 120, 121, 122, 123, 124, 125, 126, 127, 128, 129, 130, 131, 132, 133, 134, 135, 136, 137, 138, 139, 140, 141, 142, 143, 144, 145, 146, 147, 148, 149, 150, 151, 152, 153, 154, 155, 156, 157, 158, 159, 160, 161, 162, 163, 164, 165, 166, 167, 168, 169, 170, 171, 172, 173, 174, 175, 176, 177, 178, 179, 180, 181, 182, 183, 184, 185, 186, 187, 188, 189, 190, 191, 192],
      "AcquisitionTime": ["112331.467500", "112332.467500", "112333.467500", "112334.467500", "112335.467500", "112336.467500", "112337.467500", "112338.467500", "112339.467500", "112340.467500", "112341.467500", "112342.467500", "112343.467500", "112344.467500", "112345.467500", "112346.467500", "112347.467500", "112348.467500", "112349.467500", "112350.467500", "112351.467500", "112352.467500", "112353.467500", "112354.467500", "112355.467500", "112356.467500", "112357.467500", "112358.467500", "112359.467500", "112400.467500", "112401.467500", "112402.467500", "112403.467500", "112404.467500", "112405.467500", "112406.467500", "112407.467500", "112408.467500", "112409.467500", "112410.467500", "112411.467500", "112412.467500", "112413.467500", "112414.467500", "112415.467500", "112416.467500", "112417.467500", "112418.467500", "112419.467500", "112420.467500", "112421.467500", "112422.467500", "112423.467500", "112424.467500", "112425.467500", "112426.467500", "112427.467500", "112428.467500", "112429.467500", "112430.467500", "112431.467500", "112432.467500", "112433.467500", "112434.467500", "112435.467500", "112436.467500", "112437.467500", "112438.467500", "112439.467500", "112440.467500", "112441.467500", "112442.467500", "112443.467500", "112444.467500", "112445.467500", "112446.467500", "112447.467500", "112448.467500", "112449.467500", "112450.467500", "112451.467500", "112452.467500", "112453.467500", "112454.467500", "112455.467500", "112456.467500", "112457.467500", "112458.467500", "112459.467500", "112500.467500", "112501.467500", "112502.467500", "112503.467500", "112504.467500", "112505.467500", "112506.467500", "112507.467500", "112508.467500", "112509.467500", "112510.467500", "112511.467500", "112512.467500", "112513.467500", "112514.467500", "112515.467500", "112516.467500", "112517.467500", "112518.467500", "112519.467500", "112520.467500", "112521.467500", "112522.467500", "112523.467500", "112524.467500", "112525.467500", "112526.467500", "112527.467500", "112528.467500", "112529.467500", "112530.467500", "112531.467500", "112532.467500", "112533.467500", "112534.467500", "112535.467500", "112536.467500", "112537.467500", "112538.467500", "112539.467500", "112540.467500", "112541.467500", "112542.467500", "112543.467500", "112544.467500", "112545.467500", "112546.467500", "112547.467500", "112548.467500", "112549.467500", "112550.467500", "112551.467500", "112552.467500", "112553.467500", "112554.467500", "112555.467500", "112556.467500", "112557.467500", "112558.467500", "112559.467500", "112600.467500", "112601.467500", "112602.467500", "112603.467500", "112604.467500", "112605.467500", "112606.467500", "112607.467500", "112608.467500", "112609.467500", "112610.467500", "112611.467500", "112612.467500", "112613.467500", "112614.467500", "112615.467500", "112616.467500", "112617.467500", "112618.467500", "112619.467500", "112620.467500", "112621.467500", "112622.467500", "112623.467500", "112624.467500", "112625.467500", "112626.467500", "112627.467500", "112628.467500", "112629.467500", "112630.467500", "112631.467500", "112632.467500", "112633.467500", "112634.467500", "112635.467500", "112636.467500", "112637.467500", "112638.467500", "112639.467500", "112640.467500", "112641.467500", "112642.467500"],
      "ContentTime": ["112449.063000", "112449.066000", "112449.070000", "112449.073000", "112449.076000", "112449.079000", "112449.082000", "112449.085000", "112449.088000", "112449.091000", "112449.094000", "112449.097000", "112449.100000", "112449.103000", "112449.107000", "112449.111000", "112449.114000", "112449.117000", "112449.120000", "112449.123000", "112449.129000", "112449.132000", "112449.135000", "112449.138000", "112449.141000", "112449.144000", "112449.148000", "112449.151000", "112449.154000", "112449.157000", "112449.160000", "112509.028000", "112509.031000", "112509.034000", "112509.037000", "112509.040000", "112509.043000", "112509.047000", "112509.050000", "112509.053000", "112509.056000", "112509.059000", "112509.062000", "112509.065000", "112509.068000", "112509.071000", "112509.074000", "112509.077000", "112509.080000", "112509.089000", "112509.092000", "112509.095000", "112509.098000", "112509.101000", "112509.104000", "112509.107000", "112509.110000", "112509.115000", "112509.118000", "112529.027000", "112529.030000", "112529.033000", "112529.036000", "112529.039000", "112529.042000", "112529.045000", "112529.048000", "112529.051000", "112529.054000", "112529.058000", "112529.061000", "112529.064000", "112529.067000", "112529.070000", "112529.073000", "112529.076000", "112529.079000", "112529.082000", "112529.085000", "112529.088000", "112529.091000", "112529.094000", "112529.098000", "112529.101000", "112529.104000", "112529.108000", "112529.111000", "112549.027000", "112549.043000", "112549.046000", "112549.049000", "112549.052000", "112549.055000", "112549.058000", "112549.061000", "112549.064000", "112549.067000", "112549.070000", "112549.073000", "112549.077000", "112549.080000", "112549.083000", "112549.086000", "112549.089000", "112549.092000", "112549.095000", "112549.098000", "112549.101000", "112549.104000", "112549.107000", "112549.112000", "112549.134000", "112549.137000", "112549.140000", "112549.143000", "112609.027000", "112609.030000", "112609.033000", "112609.036000", "112609.039000", "112609.042000", "112609.046000", "112609.049000", "112609.052000", "112609.055000", "112609.058000", "112609.061000", "112609.064000", "112609.067000", "112609.070000", "112609.073000", "112609.076000", "112609.079000", "112609.082000", "112609.085000", "112609.088000", "112609.091000", "112609.094000", "112609.097000", "112609.100000", "112609.103000", "112609.107000", "112609.110000", "112609.114000", "112629.027000", "112629.030000", "112629.033000", "112629.036000", "112629.039000", "112629.042000", "112629.045000", "112629.049000", "112629.052000", "112629.055000", "112629.058000", "112629.061000", "112629.064000", "112629.067000", "112629.070000", "112629.073000", "112629.076000", "112629.079000", "112629.082000", "112629.085000", "112629.088000", "112629.091000", "112629.094000", "112629.097000", "112629.100000", "112629.103000", "112629.112000", "112629.116000", "112644.305000", "112644.309000", "112644.313000", "112644.316000", "112644.319000", "112644.324000", "112644.328000", "112644.332000", "112644.335000", "112644.340000", "112644.343000", "112644.347000", "112644.352000", "112644.356000", "112644.358000", "112644.362000", "112644.367000", "112644.370000", "112644.374000", "112644.379000"],
      "InstanceCreationTime": ["112449.063000", "112449.066000", "112449.070000", "112449.073000", "112449.076000", "112449.079000", "112449.082000", "112449.085000", "112449.088000", "112449.091000", "112449.094000", "112449.097000", "112449.100000", "112449.103000", "112449.107000", "112449.111000", "112449.114000", "112449.117000", "112449.120000", "112449.123000", "112449.129000", "112449.132000", "112449.135000", "112449.138000", "112449.141000", "112449.144000", "112449.148000", "112449.151000", "112449.154000", "112449.157000", "112449.160000", "112509.028000", "112509.031000", "112509.034000", "112509.037000", "112509.040000", "112509.043000", "112509.047000", "112509.050000", "112509.053000", "112509.056000", "112509.059000", "112509.062000", "112509.065000", "112509.068000", "112509.071000", "112509.074000", "112509.077000", "112509.080000", "112509.089000", "112509.092000", "112509.095000", "112509.098000", "112509.101000", "112509.104000", "112509.107000", "112509.110000", "112509.115000", "112509.118000", "112529.027000", "112529.030000", "112529.033000", "112529.036000", "112529.039000", "112529.042000", "112529.045000", "112529.048000", "112529.051000", "112529.054000", "112529.058000", "112529.061000", "112529.064000", "112529.067000", "112529.070000", "112529.073000", "112529.076000", "112529.079000", "112529.082000", "112529.085000", "112529.088000", "112529.091000", "112529.094000", "112529.098000", "112529.101000", "112529.104000", "112529.108000", "112529.111000", "112549.027000", "112549.043000", "112549.046000", "112549.049000", "112549.052000", "112549.055000", "112549.058000", "112549.061000", "112549.064000", "112549.067000", "112549.070000", "112549.073000", "112549.077000", "112549.080000", "112549.083000", "112549.086000", "112549.089000", "112549.092000", "112549.095000", "112549.098000", "112549.101000", "112549.104000", "112549.107000", "112549.112000", "112549.134000", "112549.137000", "112549.140000", "112549.143000", "112609.027000", "112609.030000", "112609.033000", "112609.036000", "112609.039000", "112609.042000", "112609.046000", "112609.049000", "112609.052000", "112609.055000", "112609.058000", "112609.061000", "112609.064000", "112609.067000", "112609.070000", "112609.073000", "112609.076000", "112609.079000", "112609.082000", "112609.085000", "112609.088000", "112609.091000", "112609.094000", "112609.097000", "112609.100000", "112609.103000", "112609.107000", "112609.110000", "112609.114000", "112629.027000", "112629.030000", "112629.033000", "112629.036000", "112629.039000", "112629.042000", "112629.045000", "112629.049000", "112629.052000", "112629.055000", "112629.058000", "112629.061000", "112629.064000", "112629.067000", "112629.070000", "112629.073000", "112629.076000", "112629.079000", "112629.082000", "112629.085000", "112629.088000", "112629.091000", "112629.094000", "112629.097000", "112629.100000", "112629.103000", "112629.112000", "112629.116000", "112644.305000", "112644.309000", "112644.313000", "112644.316000", "112644.319000", "112644.324000", "112644.328000", "112644.332000", "112644.335000", "112644.340000", "112644.343000", "112644.347000", "112644.352000", "112644.356000", "112644.358000", "112644.362000", "112644.367000", "112644.370000", "112644.374000", "112644.379000"],
      "InstanceNumber": [1, 2, 3, 4, 5, 6, 7, 8, 9, 10, 11, 12, 13, 14, 15, 16, 17, 18, 19, 20, 21, 22, 23, 24, 25, 26, 27, 28, 29, 30, 31, 32, 33, 34, 35, 36, 37, 38, 39, 40, 41, 42, 43, 44, 45, 46, 47, 48, 49, 50, 51, 52, 53, 54, 55, 56, 57, 58, 59, 60, 61, 62, 63, 64, 65, 66, 67, 68, 69, 70, 71, 72, 73, 74, 75, 76, 77, 78, 79, 80, 81, 82, 83, 84, 85, 86, 87, 88, 89, 90, 91, 92, 93, 94, 95, 96, 97, 98, 99, 100, 101, 102, 103, 104, 105, 106, 107, 108, 109, 110, 111, 112, 113, 114, 115, 116, 117, 118, 119, 120, 121, 122, 123, 124, 125, 126, 127, 128, 129, 130, 131, 132, 133, 134, 135, 136, 137, 138, 139, 140, 141, 142, 143, 144, 145, 146, 147, 148, 149, 150, 151, 152, 153, 154, 155, 156, 157, 158, 159, 160, 161, 162, 163, 164, 165, 166, 167, 168, 169, 170, 171, 172, 173, 174, 175, 176, 177, 178, 179, 180, 181, 182, 183, 184, 185, 186, 187, 188, 189, 190, 191, 192],
      "LargestImagePixelValue": [36594, 35206, 34281, 33823, 34272, 33636, 33583, 33929, 34650, 33994, 33769, 33947, 33898, 33895, 34615, 34209, 34244, 34203, 34010, 38827, 33588, 34050, 33797, 34170, 33929, 33659, 34054, 35884, 34373, 34305, 36586, 34372, 34104, 34072, 34552, 34027, 34131, 34317, 33940, 34011, 34112, 34010, 34092, 33928, 34916, 33915, 33810, 33843, 34045, 33861, 34144, 33853, 33754, 33980, 33512, 37133, 38057, 33649, 34280, 33846, 33981, 33913, 41229, 34034, 34144, 33900, 36664, 36989, 34188, 33993, 33943, 34189, 34450, 40305, 33836, 33674, 34304, 34124, 33750, 34131, 33833, 34102, 34094, 34432, 33785, 33935, 33948, 33913, 34288, 34290, 33993, 33915, 34188, 33779, 33861, 33821, 36814, 34179, 33996, 35669, 34068, 33938, 34402, 33915, 33769, 33698, 36454, 34088, 33683, 34090, 34073, 34399, 34697, 33551, 33541, 33938, 36605, 33453, 34884, 33608, 33590, 33738, 33612, 39906, 38054, 33969, 33871, 33868, 38333, 33584, 33404, 33637, 34022, 33584, 34135, 33254, 34453, 33551, 33542, 33334, 33636, 33414, 33661, 33680, 33378, 33524, 33609, 33374, 38556, 33676, 33514, 33450, 33507, 33500, 33995, 33225, 33734, 33178, 33447, 33620, 40604, 33870, 34983, 33954, 33618, 33628, 34431, 33887, 33848, 34070, 33934, 33625, 33727, 33631, 33971, 33503, 33472, 33415, 33847, 33502, 38973, 33631, 34109, 34258, 33808, 33624, 33407, 34182, 33483, 33571, 33605, 34079],
      "WindowCenter": [9005.0, 8957.0, 8939.0, 8938.0, 8938.0, 8932.0, 8915.0, 8902.0, 8897.0, 8889.0, 8879.0, 8888.0, 8897.0, 8907.0, 8922.0, 8906.0, 8905.0, 8897.0, 8889.0, 8939.0, 8890.0, 8898.0, 8899.0, 8908.0, 8915.0, 8902.0, 8891.0, 8906.0, 8876.0, 8876.0, 8893.0, 8876.0, 8886.0, 8889.0, 8903.0, 8891.0, 8905.0, 8913.0, 8907.0, 8915.0, 8922.0, 8908.0, 8908.0, 8899.0, 8903.0, 8896.0, 8896.0, 8890.0, 8895.0, 8898.0, 8904.0, 8899.0, 8900.0, 8899.0, 8909.0, 8938.0, 8950.0, 8901.0, 8907.0, 8908.0, 8900.0, 8907.0, 8982.0, 8915.0, 8922.0, 8927.0, 8950.0, 8957.0, 8934.0, 8930.0, 8921.0, 8917.0, 8914.0, 8961.0, 8899.0, 8901.0, 8899.0, 8914.0, 8908.0, 8922.0, 8919.0, 8923.0, 8924.0, 8925.0, 8923.0, 8916.0, 8915.0, 8914.0, 8922.0, 8933.0, 8919.0, 8911.0, 8910.0, 8901.0, 8897.0, 8891.0, 8929.0, 8898.0, 8908.0, 8929.0, 8920.0, 8921.0, 8935.0, 8919.0, 8919.0, 8912.0, 8940.0, 8925.0, 8912.0, 8925.0, 8909.0, 8916.0, 8922.0, 8909.0, 8918.0, 8917.0, 8942.0, 8903.0, 8913.0, 8902.0, 8901.0, 8910.0, 8920.0, 8987.0, 8954.0, 8910.0, 8901.0, 8909.0, 8942.0, 8893.0, 8901.0, 8895.0, 8910.0, 8902.0, 8907.0, 8895.0, 8914.0, 8900.0, 8901.0, 8895.0, 8896.0, 8896.0, 8905.0, 8913.0, 8913.0, 8905.0, 8905.0, 8896.0, 8959.0, 8912.0, 8930.0, 8940.0, 8948.0, 8943.0, 8940.0, 8933.0, 8930.0, 8925.0, 8932.0, 8926.0, 9006.0, 8938.0, 8943.0, 8914.0, 8905.0, 8902.0, 8916.0, 8911.0, 8917.0, 8920.0, 8919.0, 8913.0, 8906.0, 8905.0, 8919.0, 8915.0, 8922.0, 8915.0, 8921.0, 8912.0, 8959.0, 8912.0, 8919.0, 8928.0, 8930.0, 8923.0, 8916.0, 8921.0, 8922.0, 8913.0, 8912.0, 8921.0],
      "WindowWidth": [19161.0, 19037.0, 18989.0, 18980.0, 18974.0, 18964.0, 18928.0, 18895.0, 18884.0, 18864.0, 18843.0, 18865.0, 18881.0, 18904.0, 18933.0, 18900.0, 18896.0, 18879.0, 18865.0, 18952.0, 18873.0, 18890.0, 18888.0, 18910.0, 18917.0, 18896.0, 18867.0, 18887.0, 18831.0, 18832.0, 18859.0, 18836.0, 18856.0, 18871.0, 18893.0, 18875.0, 18898.0, 18914.0, 18904.0, 18917.0, 18928.0, 18909.0, 18909.0, 18890.0, 18893.0, 18877.0, 18876.0, 18872.0, 18877.0, 18888.0, 18896.0, 18891.0, 18895.0, 18890.0, 18913.0, 18955.0, 18974.0, 18893.0, 18906.0, 18907.0, 18891.0, 18905.0, 19028.0, 18919.0, 18932.0, 18951.0, 18984.0, 19000.0, 18962.0, 18960.0, 18940.0, 18925.0, 18918.0, 18990.0, 18888.0, 18894.0, 18887.0, 18916.0, 18906.0, 18934.0, 18932.0, 18934.0, 18936.0, 18940.0, 18931.0, 18921.0, 18918.0, 18912.0, 18929.0, 18959.0, 18932.0, 18915.0, 18909.0, 18893.0, 18882.0, 18873.0, 18936.0, 18887.0, 18913.0, 18951.0, 18939.0, 18944.0, 18965.0, 18931.0, 18933.0, 18917.0, 18957.0, 18940.0, 18919.0, 18939.0, 18910.0, 18918.0, 18929.0, 18908.0, 18927.0, 18927.0, 18966.0, 18902.0, 18914.0, 18898.0, 18894.0, 18913.0, 18935.0, 19045.0, 18984.0, 18907.0, 18888.0, 18904.0, 18952.0, 18877.0, 18895.0, 18883.0, 18915.0, 18896.0, 18902.0, 18881.0, 18917.0, 18892.0, 18893.0, 18885.0, 18889.0, 18888.0, 18906.0, 18922.0, 18925.0, 18907.0, 18906.0, 18888.0, 18990.0, 18920.0, 18959.0, 18978.0, 18994.0, 18990.0, 18977.0, 18964.0, 18955.0, 18946.0, 18962.0, 18955.0, 19083.0, 18972.0, 18978.0, 18921.0, 18902.0, 18893.0, 18918.0, 18913.0, 18927.0, 18934.0, 18936.0, 18924.0, 18908.0, 18906.0, 18931.0, 18928.0, 18944.0, 18929.0, 18942.0, 18918.0, 18989.0, 18918.0, 18928.0, 18947.0, 18956.0, 18948.0, 18930.0, 18933.0, 18939.0, 18917.0, 18916.0, 18937.0]
    },
    "slices": {}
  },
  "NumberOfVolumes": 192
}