{
  "aor": 0.0007010416666666667,
  "aqi": 0.004702781822916666,
  "bids_meta": {
    "AcquisitionMatrixPE": 104,
    "AcquisitionNumber": 1,
    "AcquisitionTime": "14:02:29.527500",
    "BandwidthPerPixelPhaseEncode": 16.578,
    "BaseResolution": 104,
    "BodyPartExamined": "BRAIN",
    "CogAtlasID": "TODO",
    "ConsistencyInfo": "N4_VE11C_LATEST_20160120",
    "ConversionSoftware": "dcm2niix",
    "ConversionSoftwareVersion": "v1.0.20190902",
    "DerivedVendorReportedEchoSpacing": 0.000580009,
    "DeviceSerialNumber": "166018",
    "DwellTime": 2.1e-06,
    "EchoTime": 0.037,
    "EchoTrainLength": 104,
    "EffectiveEchoSpacing": 0.000580009,
    "FlipAngle": 68,
    "ImageComments": "Unaliased_MB6_PE3_LB",
    "ImageOrientationPatientDICOM": [
      0.99682,
      0.055456,
      0.0572268,
      -0.0532879,
      0.997827,
      -0.0387416
    ],
    "ImageType": [
      "ORIGINAL",
      "PRIMARY",
      "M",
      "MB",
      "ND",
      "MOSAIC"
    ],
    "ImagingFrequency": 123.191,
    "InPlanePhaseEncodingDirectionDICOM": "COL",
    "InstitutionAddress": "Washington_Place_6_NYC_NYC_US_10003",
    "InstitutionName": "NYU_-_CBI",
    "InstitutionalDepartmentName": "Department",
    "MRAcquisitionType": "2D",
    "MagneticFieldStrength": 3,
    "Manufacturer": "Siemens",
    "ManufacturersModelName": "Prisma",
    "Modality": "MR",
    "MultibandAccelerationFactor": 6,
    "NumberOfVolumes": 192,
    "PartialFourier": 1,
    "PatientPosition": "HFS",
    "PercentPhaseFOV": 100,
    "PhaseEncodingDirection": "j",
    "PhaseEncodingSteps": 104,
    "PhaseResolution": 1,
    "PixelBandwidth": 2290,
    "ProcedureStepDescription": "Investigators_Winawer",
    "ProtocolName": "cmrr_mbepi_s6_2mm_66sl_PA_task-prf",
    "PulseSequenceDetails": "%CustomerSeq%_cmrr_mbep2d_bold",
    "ReceiveCoilActiveElements": "HC1-7",
    "ReceiveCoilName": "HeadNeck_64",
    "ReconMatrixPE": 104,
    "RepetitionTime": 1,
    "SAR": 0.0678238,
    "ScanOptions": "FS",
    "ScanningSequence": "EP",
    "SequenceName": "epfid2d1_104",
    "SequenceVariant": "SK_SS",
    "SeriesDescription": "cmrr_mbepi_s6_2mm_66sl_PA_task-prf",
    "SeriesNumber": 20,
    "ShimSetting": [
      280,
      -12623,
      -8444,
      448,
      116,
      -83,
      -27,
      56
    ],
    "SliceThickness": 2,
    "SliceTiming": [
      0,
      0.5325,
      0.0875,
      0.6225,
      0.1775,
      0.7125,
      0.2675,
      0.8,
      0.355,
      0.89,
      0.445,
      0,
      0.5325,
      0.0875,
      0.6225,
      0.1775,
      0.7125,
      0.2675,
      0.8,
      0.355,
      0.89,
      0.445,
      0,
      0.5325,
      0.0875,
      0.6225,
      0.1775,
      0.7125,
      0.2675,
      0.8,
      0.355,
      0.89,
      0.445,
      0,
      0.5325,
      0.0875,
      0.6225,
      0.1775,
      0.7125,
      0.2675,
      0.8,
      0.355,
      0.89,
      0.445,
      0,
      0.5325,
      0.0875,
      0.6225,
      0.1775,
      0.7125,
      0.2675,
      0.8,
      0.355,
      0.89,
      0.445,
      0,
      0.5325,
      0.0875,
      0.6225,
      0.1775,
      0.7125,
      0.2675,
      0.8,
      0.355,
      0.89,
      0.445
    ],
    "SoftwareVersions": "syngo_MR_E11",
    "SpacingBetweenSlices": 2,
    "StationName": "AWP166018",
    "TaskName": "prf",
    "TotalReadoutTime": 0.0597409,
    "TxRefAmp": 203.414,
    "WipMemBlock": "2511c6c7-107a-436b-ac25-d9079d357a75||Sequence: R016 ve11c/master r/8780670; Nov 27 2017 15:05:12 by eja",
    "acq_id": "PA",
    "dataset": "unknown",
    "dcmmeta_affine": [
      [
        -1.993639588356018,
        -0.10657580196857452,
        0.11850181221961975,
        109.31697845458984
      ],
      [
        -0.11091196537017822,
        1.995654821395874,
        -0.07113789021968842,
        -65.76241302490234
      ],
      [
        0.11445355415344238,
        0.07748328894376755,
        1.9952185153961182,
        -48.17840576171875
      ],
      [
        0.0,
        0.0,
        0.0,
        1.0
      ]
    ],
    "dcmmeta_reorient_transform": [
      [
        0.0,
        -1.0,
        0.0,
        103.0
      ],
      [
        1.0,
        0.0,
        0.0,
        0.0
      ],
      [
        0.0,
        0.0,
        1.0,
        0.0
      ],
      [
        0.0,
        0.0,
        0.0,
        1.0
      ]
    ],
    "dcmmeta_shape": [
      104,
      104,
      66,
      192
    ],
    "dcmmeta_slice_dim": 2,
    "dcmmeta_version": 0.6,
    "global": {
      "const": {
        "AccessionNumber": "k2p9ooaw",
        "AcquisitionMatrix": [
          104,
          0,
          0,
          104
        ],
        "AngioFlag": "N",
        "BitsAllocated": 16,
        "BitsStored": 16,
        "BodyPartExamined": "BRAIN",
        "Columns": 936,
        "EchoNumbers": 1,
        "EchoTime": 37.0,
        "EchoTrainLength": 104,
        "FlipAngle": 68.0,
        "HighBit": 15,
        "ImageOrientationPatient": [
          0.99681980817365,
          0.05545598093937,
          0.05722677879022,
          -0.0532879025573,
          0.99782738210547,
          -0.0387416437648
        ],
        "ImagePositionPatient": [
          -883.35821322076,
          -1016.1217858544,
          -55.577259571058
        ],
        "ImageType": [
          "ORIGINAL",
          "PRIMARY",
          "M",
          "MB",
          "ND",
          "MOSAIC"
        ],
        "ImagedNucleus": "1H",
        "ImagingFrequency": 123.190745,
        "InPlanePhaseEncodingDirection": "COL",
        "MRAcquisitionType": "2D",
        "MagneticFieldStrength": 3.0,
        "Manufacturer": "SIEMENS",
        "ManufacturerModelName": "Prisma",
        "Modality": "MR",
        "NumberOfAverages": 1.0,
        "NumberOfPhaseEncodingSteps": 104,
        "PercentPhaseFieldOfView": 100.0,
        "PercentSampling": 100.0,
        "PerformedProcedureStepStartTime": "133254.275000",
        "PhotometricInterpretation": "MONOCHROME2",
        "PixelBandwidth": 2290.0,
        "PixelRepresentation": 0,
        "PixelSpacing": [
          2.0,
          2.0
        ],
        "ProtocolName": "cmrr_mbepi_s6_2mm_66sl_PA_task-prf",
        "RepetitionTime": 1000.0,
        "Rows": 936,
        "SAR": 0.06782381433557,
        "SamplesPerPixel": 1,
        "ScanOptions": "FS",
        "ScanningSequence": "EP",
        "SequenceName": "epfid2d1_104",
        "SequenceVariant": [
          "SK",
          "SS"
        ],
        "SeriesDescription": "cmrr_mbepi_s6_2mm_66sl_PA_task-prf",
        "SeriesNumber": 20,
        "SeriesTime": "140335.445000",
        "SliceLocation": -39.246993478625,
        "SliceThickness": 2.0,
        "SmallestImagePixelValue": 0,
        "SoftwareVersions": "syngo MR E11",
        "SpacingBetweenSlices": 2.000000075866,
        "SpecificCharacterSet": "ISO_IR 100",
        "StudyID": "1",
        "StudyTime": "133254.141000",
        "TransmitCoilName": "Body",
        "VariableFlipAngleFlag": "N",
        "WindowCenterWidthExplanation": "Algo1",
        "dBdt": 0.0
      },
      "slices": {}
    },
    "modality": "bold",
    "run_id": 5,
    "session_id": "nyu3t01",
    "subject_id": "wlsubj079",
    "task_id": "prf",
    "time": {
      "samples": {
        "AcquisitionNumber": [
          1,
          2,
          3,
          4,
          5,
          6,
          7,
          8,
          9,
          10,
          11,
          12,
          13,
          14,
          15,
          16,
          17,
          18,
          19,
          20,
          21,
          22,
          23,
          24,
          25,
          26,
          27,
          28,
          29,
          30,
          31,
          32,
          33,
          34,
          35,
          36,
          37,
          38,
          39,
          40,
          41,
          42,
          43,
          44,
          45,
          46,
          47,
          48,
          49,
          50,
          51,
          52,
          53,
          54,
          55,
          56,
          57,
          58,
          59,
          60,
          61,
          62,
          63,
          64,
          65,
          66,
          67,
          68,
          69,
          70,
          71,
          72,
          73,
          74,
          75,
          76,
          77,
          78,
          79,
          80,
          81,
          82,
          83,
          84,
          85,
          86,
          87,
          88,
          89,
          90,
          91,
          92,
          93,
          94,
          95,
          96,
          97,
          98,
          99,
          100,
          101,
          102,
          103,
          104,
          105,
          106,
          107,
          108,
          109,
          110,
          111,
          112,
          113,
          114,
          115,
          116,
          117,
          118,
          119,
          120,
          121,
          122,
          123,
          124,
          125,
          126,
          127,
          128,
          129,
          130,
          131,
          132,
          133,
          134,
          135,
          136,
          137,
          138,
          139,
          140,
          141,
          142,
          143,
          144,
          145,
          146,
          147,
          148,
          149,
          150,
          151,
          152,
          153,
          154,
          155,
          156,
          157,
          158,
          159,
          160,
          161,
          162,
          163,
          164,
          165,
          166,
          167,
          168,
          169,
          170,
          171,
          172,
          173,
          174,
          175,
          176,
          177,
          178,
          179,
          180,
          181,
          182,
          183,
          184,
          185,
          186,
          187,
          188,
          189,
          190,
          191,
          192
        ],
        "AcquisitionTime": [
          "140229.527500",
          "140230.527500",
          "140231.527500",
          "140232.527500",
          "140233.527500",
          "140234.527500",
          "140235.527500",
          "140236.527500",
          "140237.527500",
          "140238.527500",
          "140239.527500",
          "140240.527500",
          "140241.527500",
          "140242.527500",
          "140243.527500",
          "140244.527500",
          "140245.527500",
          "140246.527500",
          "140247.527500",
          "140248.527500",
          "140249.527500",
          "140250.527500",
          "140251.527500",
          "140252.527500",
          "140253.527500",
          "140254.527500",
          "140255.527500",
          "140256.527500",
          "140257.527500",
          "140258.527500",
          "140259.527500",
          "140300.527500",
          "140301.527500",
          "140302.527500",
          "140303.527500",
          "140304.527500",
          "140305.527500",
          "140306.527500",
          "140307.527500",
          "140308.527500",
          "140309.527500",
          "140310.527500",
          "140311.527500",
          "140312.527500",
          "140313.527500",
          "140314.527500",
          "140315.527500",
          "140316.527500",
          "140317.527500",
          "140318.527500",
          "140319.527500",
          "140320.527500",
          "140321.527500",
          "140322.527500",
          "140323.527500",
          "140324.527500",
          "140325.527500",
          "140326.527500",
          "140327.527500",
          "140328.527500",
          "140329.527500",
          "140330.527500",
          "140331.527500",
          "140332.527500",
          "140333.527500",
          "140334.527500",
          "140335.527500",
          "140336.527500",
          "140337.527500",
          "140338.527500",
          "140339.527500",
          "140340.527500",
          "140341.527500",
          "140342.527500",
          "140343.527500",
          "140344.527500",
          "140345.527500",
          "140346.527500",
          "140347.527500",
          "140348.527500",
          "140349.527500",
          "140350.527500",
          "140351.527500",
          "140352.527500",
          "140353.527500",
          "140354.527500",
          "140355.527500",
          "140356.527500",
          "140357.527500",
          "140358.527500",
          "140359.527500",
          "140400.527500",
          "140401.527500",
          "140402.527500",
          "140403.527500",
          "140404.527500",
          "140405.527500",
          "140406.527500",
          "140407.527500",
          "140408.527500",
          "140409.527500",
          "140410.527500",
          "140411.527500",
          "140412.527500",
          "140413.527500",
          "140414.527500",
          "140415.527500",
          "140416.527500",
          "140417.527500",
          "140418.527500",
          "140419.527500",
          "140420.527500",
          "140421.527500",
          "140422.527500",
          "140423.527500",
          "140424.527500",
          "140425.527500",
          "140426.527500",
          "140427.527500",
          "140428.527500",
          "140429.527500",
          "140430.527500",
          "140431.527500",
          "140432.527500",
          "140433.527500",
          "140434.527500",
          "140435.527500",
          "140436.527500",
          "140437.527500",
          "140438.527500",
          "140439.527500",
          "140440.527500",
          "140441.527500",
          "140442.527500",
          "140443.527500",
          "140444.527500",
          "140445.527500",
          "140446.527500",
          "140447.527500",
          "140448.527500",
          "140449.527500",
          "140450.527500",
          "140451.527500",
          "140452.527500",
          "140453.527500",
          "140454.527500",
          "140455.527500",
          "140456.527500",
          "140457.527500",
          "140458.527500",
          "140459.527500",
          "140500.527500",
          "140501.527500",
          "140502.527500",
          "140503.527500",
          "140504.527500",
          "140505.527500",
          "140506.527500",
          "140507.527500",
          "140508.527500",
          "140509.527500",
          "140510.527500",
          "140511.527500",
          "140512.527500",
          "140513.527500",
          "140514.527500",
          "140515.527500",
          "140516.527500",
          "140517.527500",
          "140518.527500",
          "140519.527500",
          "140520.527500",
          "140521.527500",
          "140522.527500",
          "140523.527500",
          "140524.527500",
          "140525.527500",
          "140526.527500",
          "140527.527500",
          "140528.527500",
          "140529.527500",
          "140530.527500",
          "140531.527500",
          "140532.527500",
          "140533.527500",
          "140534.527500",
          "140535.527500",
          "140536.527500",
          "140537.527500",
          "140538.527500",
          "140539.527500",
          "140540.527500"
        ],
        "ContentTime": [
          "140335.448000",
          "140335.451000",
          "140335.454000",
          "140335.463000",
          "140335.466000",
          "140335.469000",
          "140335.472000",
          "140335.494000",
          "140335.497000",
          "140335.500000",
          "140335.503000",
          "140335.506000",
          "140335.509000",
          "140335.512000",
          "140335.515000",
          "140335.524000",
          "140335.527000",
          "140335.530000",
          "140335.533000",
          "140335.536000",
          "140355.417000",
          "140355.420000",
          "140355.423000",
          "140355.426000",
          "140355.429000",
          "140355.432000",
          "140355.435000",
          "140355.438000",
          "140355.441000",
          "140355.443000",
          "140355.446000",
          "140355.449000",
          "140355.452000",
          "140355.455000",
          "140355.458000",
          "140355.474000",
          "140355.477000",
          "140355.480000",
          "140355.483000",
          "140355.486000",
          "140355.492000",
          "140355.495000",
          "140355.497000",
          "140355.500000",
          "140355.503000",
          "140355.506000",
          "140355.509000",
          "140355.512000",
          "140355.515000",
          "140415.417000",
          "140415.420000",
          "140415.424000",
          "140415.428000",
          "140415.432000",
          "140415.435000",
          "140415.438000",
          "140415.441000",
          "140415.444000",
          "140415.447000",
          "140415.450000",
          "140415.453000",
          "140415.456000",
          "140415.459000",
          "140415.462000",
          "140415.465000",
          "140415.468000",
          "140415.471000",
          "140415.474000",
          "140415.477000",
          "140415.480000",
          "140415.483000",
          "140415.486000",
          "140415.488000",
          "140415.491000",
          "140415.494000",
          "140415.497000",
          "140415.500000",
          "140435.417000",
          "140435.420000",
          "140435.423000",
          "140435.428000",
          "140435.431000",
          "140435.434000",
          "140435.437000",
          "140435.440000",
          "140435.443000",
          "140435.446000",
          "140435.449000",
          "140435.452000",
          "140435.454000",
          "140435.457000",
          "140435.460000",
          "140435.463000",
          "140435.466000",
          "140435.469000",
          "140435.472000",
          "140435.475000",
          "140435.478000",
          "140435.481000",
          "140435.484000",
          "140435.487000",
          "140435.490000",
          "140435.493000",
          "140435.496000",
          "140435.499000",
          "140455.417000",
          "140455.420000",
          "140455.423000",
          "140455.426000",
          "140455.429000",
          "140455.432000",
          "140455.435000",
          "140455.438000",
          "140455.441000",
          "140455.444000",
          "140455.447000",
          "140455.455000",
          "140455.458000",
          "140455.461000",
          "140455.464000",
          "140455.467000",
          "140455.470000",
          "140455.473000",
          "140455.476000",
          "140455.479000",
          "140455.482000",
          "140455.485000",
          "140455.488000",
          "140455.491000",
          "140455.494000",
          "140455.496000",
          "140455.500000",
          "140455.503000",
          "140455.505000",
          "140515.417000",
          "140515.420000",
          "140515.423000",
          "140515.426000",
          "140515.429000",
          "140515.432000",
          "140515.435000",
          "140515.438000",
          "140515.441000",
          "140515.444000",
          "140515.447000",
          "140515.450000",
          "140515.453000",
          "140515.456000",
          "140515.459000",
          "140515.462000",
          "140515.464000",
          "140515.467000",
          "140515.470000",
          "140515.473000",
          "140515.476000",
          "140515.479000",
          "140515.482000",
          "140515.485000",
          "140515.488000",
          "140515.491000",
          "140515.494000",
          "140515.497000",
          "140535.417000",
          "140535.420000",
          "140535.423000",
          "140535.426000",
          "140535.429000",
          "140535.432000",
          "140535.435000",
          "140535.438000",
          "140535.441000",
          "140535.444000",
          "140535.447000",
          "140535.450000",
          "140535.453000",
          "140535.456000",
          "140535.459000",
          "140535.462000",
          "140535.465000",
          "140535.468000",
          "140535.471000",
          "140535.474000",
          "140535.477000",
          "140535.480000",
          "140535.483000",
          "140542.105000",
          "140542.109000",
          "140542.112000",
          "140542.116000",
          "140542.119000",
          "140542.122000",
          "140542.126000"
        ],
        "InstanceCreationTime": [
          "140335.448000",
          "140335.451000",
          "140335.454000",
          "140335.463000",
          "140335.466000",
          "140335.469000",
          "140335.472000",
          "140335.494000",
          "140335.497000",
          "140335.500000",
          "140335.503000",
          "140335.506000",
          "140335.509000",
          "140335.512000",
          "140335.515000",
          "140335.524000",
          "140335.527000",
          "140335.530000",
          "140335.533000",
          "140335.536000",
          "140355.417000",
          "140355.420000",
          "140355.423000",
          "140355.426000",
          "140355.429000",
          "140355.432000",
          "140355.435000",
          "140355.438000",
          "140355.441000",
          "140355.443000",
          "140355.446000",
          "140355.449000",
          "140355.452000",
          "140355.455000",
          "140355.458000",
          "140355.474000",
          "140355.477000",
          "140355.480000",
          "140355.483000",
          "140355.486000",
          "140355.492000",
          "140355.495000",
          "140355.497000",
          "140355.500000",
          "140355.503000",
          "140355.506000",
          "140355.509000",
          "140355.512000",
          "140355.515000",
          "140415.417000",
          "140415.420000",
          "140415.424000",
          "140415.428000",
          "140415.432000",
          "140415.435000",
          "140415.438000",
          "140415.441000",
          "140415.444000",
          "140415.447000",
          "140415.450000",
          "140415.453000",
          "140415.456000",
          "140415.459000",
          "140415.462000",
          "140415.465000",
          "140415.468000",
          "140415.471000",
          "140415.474000",
          "140415.477000",
          "140415.480000",
          "140415.483000",
          "140415.486000",
          "140415.488000",
          "140415.491000",
          "140415.494000",
          "140415.497000",
          "140415.500000",
          "140435.417000",
          "140435.420000",
          "140435.423000",
          "140435.428000",
          "140435.431000",
          "140435.434000",
          "140435.437000",
          "140435.440000",
          "140435.443000",
          "140435.446000",
          "140435.449000",
          "140435.452000",
          "140435.454000",
          "140435.457000",
          "140435.460000",
          "140435.463000",
          "140435.466000",
          "140435.469000",
          "140435.472000",
          "140435.475000",
          "140435.478000",
          "140435.481000",
          "140435.484000",
          "140435.487000",
          "140435.490000",
          "140435.493000",
          "140435.496000",
          "140435.499000",
          "140455.417000",
          "140455.420000",
          "140455.423000",
          "140455.426000",
          "140455.429000",
          "140455.432000",
          "140455.435000",
          "140455.438000",
          "140455.441000",
          "140455.444000",
          "140455.447000",
          "140455.455000",
          "140455.458000",
          "140455.461000",
          "140455.464000",
          "140455.467000",
          "140455.470000",
          "140455.473000",
          "140455.476000",
          "140455.479000",
          "140455.482000",
          "140455.485000",
          "140455.488000",
          "140455.491000",
          "140455.494000",
          "140455.496000",
          "140455.500000",
          "140455.503000",
          "140455.505000",
          "140515.417000",
          "140515.420000",
          "140515.423000",
          "140515.426000",
          "140515.429000",
          "140515.432000",
          "140515.435000",
          "140515.438000",
          "140515.441000",
          "140515.444000",
          "140515.447000",
          "140515.450000",
          "140515.453000",
          "140515.456000",
          "140515.459000",
          "140515.462000",
          "140515.464000",
          "140515.467000",
          "140515.470000",
          "140515.473000",
          "140515.476000",
          "140515.479000",
          "140515.482000",
          "140515.485000",
          "140515.488000",
          "140515.491000",
          "140515.494000",
          "140515.497000",
          "140535.417000",
          "140535.420000",
          "140535.423000",
          "140535.426000",
          "140535.429000",
          "140535.432000",
          "140535.435000",
          "140535.438000",
          "140535.441000",
          "140535.444000",
          "140535.447000",
          "140535.450000",
          "140535.453000",
          "140535.456000",
          "140535.459000",
          "140535.462000",
          "140535.465000",
          "140535.468000",
          "140535.471000",
          "140535.474000",
          "140535.477000",
          "140535.480000",
          "140535.483000",
          "140542.105000",
          "140542.109000",
          "140542.112000",
          "140542.116000",
          "140542.119000",
          "140542.122000",
          "140542.126000"
        ],
        "InstanceNumber": [
          1,
          2,
          3,
          4,
          5,
          6,
          7,
          8,
          9,
          10,
          11,
          12,
          13,
          14,
          15,
          16,
          17,
          18,
          19,
          20,
          21,
          22,
          23,
          24,
          25,
          26,
          27,
          28,
          29,
          30,
          31,
          32,
          33,
          34,
          35,
          36,
          37,
          38,
          39,
          40,
          41,
          42,
          43,
          44,
          45,
          46,
          47,
          48,
          49,
          50,
          51,
          52,
          53,
          54,
          55,
          56,
          57,
          58,
          59,
          60,
          61,
          62,
          63,
          64,
          65,
          66,
          67,
          68,
          69,
          70,
          71,
          72,
          73,
          74,
          75,
          76,
          77,
          78,
          79,
          80,
          81,
          82,
          83,
          84,
          85,
          86,
          87,
          88,
          89,
          90,
          91,
          92,
          93,
          94,
          95,
          96,
          97,
          98,
          99,
          100,
          101,
          102,
          103,
          104,
          105,
          106,
          107,
          108,
          109,
          110,
          111,
          112,
          113,
          114,
          115,
          116,
          117,
          118,
          119,
          120,
          121,
          122,
          123,
          124,
          125,
          126,
          127,
          128,
          129,
          130,
          131,
          132,
          133,
          134,
          135,
          136,
          137,
          138,
          139,
          140,
          141,
          142,
          143,
          144,
          145,
          146,
          147,
          148,
          149,
          150,
          151,
          152,
          153,
          154,
          155,
          156,
          157,
          158,
          159,
          160,
          161,
          162,
          163,
          164,
          165,
          166,
          167,
          168,
          169,
          170,
          171,
          172,
          173,
          174,
          175,
          176,
          177,
          178,
          179,
          180,
          181,
          182,
          183,
          184,
          185,
          186,
          187,
          188,
          189,
          190,
          191,
          192
        ],
        "LargestImagePixelValue": [
          41176,
          39919,
          39153,
          38669,
          38645,
          38597,
          38268,
          38305,
          38540,
          37934,
          38203,
          37734,
          38157,
          38056,
          37625,
          37831,
          37899,
          38219,
          37946,
          38330,
          37842,
          37929,
          38188,
          38304,
          38273,
          38165,
          37939,
          37851,
          38110,
          38590,
          38281,
          38006,
          37427,
          37483,
          37840,
          38298,
          38053,
          37812,
          37563,
          37912,
          38098,
          38104,
          37841,
          37864,
          38059,
          37558,
          37609,
          38114,
          37787,
          37861,
          37802,
          37809,
          38310,
          37904,
          37759,
          37904,
          37693,
          37705,
          37893,
          37844,
          37663,
          37745,
          37743,
          37691,
          38381,
          37865,
          37813,
          37465,
          37908,
          37503,
          38062,
          39470,
          37388,
          37979,
          37884,
          37896,
          37949,
          37831,
          37760,
          37436,
          37746,
          37521,
          37845,
