{
  "aor": 0.0005703157894736842,
  "aqi": 0.004568994789473684,
  "bids_meta": {
    "AcquisitionMatrixPE": 104,
    "AcquisitionNumber": 1,
    "AcquisitionTime": "13:58:26.500000",
    "BandwidthPerPixelPhaseEncode": 16.578,
    "BaseResolution": 104,
    "BodyPartExamined": "BRAIN",
    "CogAtlasID": "TODO",
    "ConsistencyInfo": "N4_VE11C_LATEST_20160120",
    "ConversionSoftware": "dcm2niix",
    "ConversionSoftwareVersion": "v1.0.20190902",
    "DerivedVendorReportedEchoSpacing": 0.000580009,
    "DeviceSerialNumber": "166018",
    "DwellTime": 2.1e-06,
    "EchoTime": 0.037,
    "EchoTrainLength": 104,
    "EffectiveEchoSpacing": 0.000580009,
    "FlipAngle": 68,
    "ImageComments": "Unaliased_MB6_PE3_LB",
    "ImageOrientationPatientDICOM": [
      0.99682,
      0.055456,
      0.0572268,
      -0.0532879,
      0.997827,
      -0.0387416
    ],
    "ImageType": [
      "ORIGINAL",
      "PRIMARY",
      "M",
      "MB",
      "ND",
      "MOSAIC"
    ],
    "ImagingFrequency": 123.191,
    "InPlanePhaseEncodingDirectionDICOM": "COL",
    "InstitutionAddress": "Washington_Place_6_NYC_NYC_US_10003",
    "InstitutionName": "NYU_-_CBI",
    "InstitutionalDepartmentName": "Department",
    "MRAcquisitionType": "2D",
    "MagneticFieldStrength": 3,
    "Manufacturer": "Siemens",
    "ManufacturersModelName": "Prisma",
    "Modality": "MR",
    "MultibandAccelerationFactor": 6,
    "NumberOfVolumes": 192,
    "PartialFourier": 1,
    "PatientPosition": "HFS",
    "PercentPhaseFOV": 100,
    "PhaseEncodingDirection": "j",
    "PhaseEncodingSteps": 104,
    "PhaseResolution": 1,
    "PixelBandwidth": 2290,
    "ProcedureStepDescription": "Investigators_Winawer",
    "ProtocolName": "cmrr_mbepi_s6_2mm_66sl_PA_task-prf",
    "PulseSequenceDetails": "%CustomerSeq%_cmrr_mbep2d_bold",
    "ReceiveCoilActiveElements": "HC1-7",
    "ReceiveCoilName": "HeadNeck_64",
    "ReconMatrixPE": 104,
    "RepetitionTime": 1,
    "SAR": 0.0678238,
    "ScanOptions": "FS",
    "ScanningSequence": "EP",
    "SequenceName": "epfid2d1_104",
    "SequenceVariant": "SK_SS",
    "SeriesDescription": "cmrr_mbepi_s6_2mm_66sl_PA_task-prf",
    "SeriesNumber": 18,
    "ShimSetting": [
      280,
      -12623,
      -8444,
      448,
      116,
      -83,
      -27,
      56
    ],
    "SliceThickness": 2,
    "SliceTiming": [
      0,
      0.535,
      0.09,
      0.625,
      0.1775,
      0.7125,
      0.2675,
      0.8025,
      0.3575,
      0.89,
      0.445,
      0,
      0.535,
      0.09,
      0.625,
      0.1775,
      0.7125,
      0.2675,
      0.8025,
      0.3575,
      0.89,
      0.445,
      0,
      0.535,
      0.09,
      0.625,
      0.1775,
      0.7125,
      0.2675,
      0.8025,
      0.3575,
      0.89,
      0.445,
      0,
      0.535,
      0.09,
      0.625,
      0.1775,
      0.7125,
      0.2675,
      0.8025,
      0.3575,
      0.89,
      0.445,
      0,
      0.535,
      0.09,
      0.625,
      0.1775,
      0.7125,
      0.2675,
      0.8025,
      0.3575,
      0.89,
      0.445,
      0,
      0.535,
      0.09,
      0.625,
      0.1775,
      0.7125,
      0.2675,
      0.8025,
      0.3575,
      0.89,
      0.445
    ],
    "SoftwareVersions": "syngo_MR_E11",
    "SpacingBetweenSlices": 2,
    "StationName": "AWP166018",
    "TaskName": "prf",
    "TotalReadoutTime": 0.0597409,
    "TxRefAmp": 203.414,
    "WipMemBlock": "2511c6c7-107a-436b-ac25-d9079d357a75||Sequence: R016 ve11c/master r/8780670; Nov 27 2017 15:05:12 by eja",
    "acq_id": "PA",
    "dataset": "unknown",
    "dcmmeta_affine": [
      [
        -1.993639588356018,
        -0.10657580196857452,
        0.11850181221961975,
        109.31697845458984
      ],
      [
        -0.11091196537017822,
        1.995654821395874,
        -0.07113789021968842,
        -65.76241302490234
      ],
      [
        0.11445355415344238,
        0.07748328894376755,
        1.9952185153961182,
        -48.17840576171875
      ],
      [
        0.0,
        0.0,
        0.0,
        1.0
      ]
    ],
    "dcmmeta_reorient_transform": [
      [
        0.0,
        -1.0,
        0.0,
        103.0
      ],
      [
        1.0,
        0.0,
        0.0,
        0.0
      ],
      [
        0.0,
        0.0,
        1.0,
        0.0
      ],
      [
        0.0,
        0.0,
        0.0,
        1.0
      ]
    ],
    "dcmmeta_shape": [
      104,
      104,
      66,
      192
    ],
    "dcmmeta_slice_dim": 2,
    "dcmmeta_version": 0.6,
    "global": {
      "const": {
        "AccessionNumber": "k2p9ooaw",
        "AcquisitionMatrix": [
          104,
          0,
          0,
          104
        ],
        "AngioFlag": "N",
        "BitsAllocated": 16,
        "BitsStored": 16,
        "BodyPartExamined": "BRAIN",
        "Columns": 936,
        "EchoNumbers": 1,
        "EchoTime": 37.0,
        "EchoTrainLength": 104,
        "FlipAngle": 68.0,
        "HighBit": 15,
        "ImageOrientationPatient": [
          0.99681980817365,
          0.05545598093937,
          0.05722677879022,
          -0.0532879025573,
          0.99782738210547,
          -0.0387416437648
        ],
        "ImagePositionPatient": [
          -883.35821322076,
          -1016.1217858544,
          -55.577259571058
        ],
        "ImageType": [
          "ORIGINAL",
          "PRIMARY",
          "M",
          "MB",
          "ND",
          "MOSAIC"
        ],
        "ImagedNucleus": "1H",
        "ImagingFrequency": 123.190745,
        "InPlanePhaseEncodingDirection": "COL",
        "MRAcquisitionType": "2D",
        "MagneticFieldStrength": 3.0,
        "Manufacturer": "SIEMENS",
        "ManufacturerModelName": "Prisma",
        "Modality": "MR",
        "NumberOfAverages": 1.0,
        "NumberOfPhaseEncodingSteps": 104,
        "PercentPhaseFieldOfView": 100.0,
        "PercentSampling": 100.0,
        "PerformedProcedureStepStartTime": "133254.275000",
        "PhotometricInterpretation": "MONOCHROME2",
        "PixelBandwidth": 2290.0,
        "PixelRepresentation": 0,
        "PixelSpacing": [
          2.0,
          2.0
        ],
        "ProtocolName": "cmrr_mbepi_s6_2mm_66sl_PA_task-prf",
        "RepetitionTime": 1000.0,
        "Rows": 936,
        "SAR": 0.06782381433557,
        "SamplesPerPixel": 1,
        "ScanOptions": "FS",
        "ScanningSequence": "EP",
        "SequenceName": "epfid2d1_104",
        "SequenceVariant": [
          "SK",
          "SS"
        ],
        "SeriesDescription": "cmrr_mbepi_s6_2mm_66sl_PA_task-prf",
        "SeriesNumber": 18,
        "SeriesTime": "135935.378000",
        "SliceLocation": -39.246993478625,
        "SliceThickness": 2.0,
        "SmallestImagePixelValue": 0,
        "SoftwareVersions": "syngo MR E11",
        "SpacingBetweenSlices": 2.000000075866,
        "SpecificCharacterSet": "ISO_IR 100",
        "StudyID": "1",
        "StudyTime": "133254.141000",
        "TransmitCoilName": "Body",
        "VariableFlipAngleFlag": "N",
        "WindowCenterWidthExplanation": "Algo1",
        "dBdt": 0.0
      },
      "slices": {}
    },
    "modality": "bold",
    "run_id": 4,
    "session_id": "nyu3t01",
    "subject_id": "wlsubj079",
    "task_id": "prf",
    "time": {
      "samples": {
        "AcquisitionNumber": [
          1,
          2,
          3,
          4,
          5,
          6,
          7,
          8,
          9,
          10,
          11,
          12,
          13,
          14,
          15,
          16,
          17,
          18,
          19,
          20,
          21,
          22,
          23,
          24,
          25,
          26,
          27,
          28,
          29,
          30,
          31,
          32,
          33,
          34,
          35,
          36,
          37,
          38,
          39,
          40,
          41,
          42,
          43,
          44,
          45,
          46,
          47,
          48,
          49,
          50,
          51,
          52,
          53,
          54,
          55,
          56,
          57,
          58,
          59,
          60,
          61,
          62,
          63,
          64,
          65,
          66,
          67,
          68,
          69,
          70,
          71,
          72,
          73,
          74,
          75,
          76,
          77,
          78,
          79,
          80,
          81,
          82,
          83,
          84,
          85,
          86,
          87,
          88,
          89,
          90,
          91,
          92,
          93,
          94,
          95,
          96,
          97,
          98,
          99,
          100,
          101,
          102,
          103,
          104,
          105,
          106,
          107,
          108,
          109,
          110,
          111,
          112,
          113,
          114,
          115,
          116,
          117,
          118,
          119,
          120,
          121,
          122,
          123,
          124,
          125,
          126,
          127,
          128,
          129,
          130,
          131,
          132,
          133,
          134,
          135,
          136,
          137,
          138,
          139,
          140,
          141,
          142,
          143,
          144,
          145,
          146,
          147,
          148,
          149,
          150,
          151,
          152,
          153,
          154,
          155,
          156,
          157,
          158,
          159,
          160,
          161,
          162,
          163,
          164,
          165,
          166,
          167,
          168,
          169,
          170,
          171,
          172,
          173,
          174,
          175,
          176,
          177,
          178,
          179,
          180,
          181,
          182,
          183,
          184,
          185,
          186,
          187,
          188,
          189,
          190,
          191,
          192
        ],
        "AcquisitionTime": [
          "135826.500000",
          "135827.500000",
          "135828.500000",
          "135829.500000",
          "135830.500000",
          "135831.500000",
          "135832.500000",
          "135833.500000",
          "135834.500000",
          "135835.500000",
          "135836.500000",
          "135837.500000",
          "135838.500000",
          "135839.500000",
          "135840.500000",
          "135841.500000",
          "135842.500000",
          "135843.500000",
          "135844.500000",
          "135845.500000",
          "135846.500000",
          "135847.500000",
          "135848.500000",
          "135849.500000",
          "135850.500000",
          "135851.500000",
          "135852.500000",
          "135853.500000",
          "135854.500000",
          "135855.500000",
          "135856.500000",
          "135857.500000",
          "135858.500000",
          "135859.500000",
          "135900.500000",
          "135901.500000",
          "135902.500000",
          "135903.500000",
          "135904.500000",
          "135905.500000",
          "135906.500000",
          "135907.500000",
          "135908.500000",
          "135909.500000",
          "135910.500000",
          "135911.500000",
          "135912.500000",
          "135913.500000",
          "135914.500000",
          "135915.500000",
          "135916.500000",
          "135917.500000",
          "135918.500000",
          "135919.500000",
          "135920.500000",
          "135921.500000",
          "135922.500000",
          "135923.500000",
          "135924.500000",
          "135925.500000",
          "135926.500000",
          "135927.500000",
          "135928.500000",
          "135929.500000",
          "135930.500000",
          "135931.500000",
          "135932.500000",
          "135933.500000",
          "135934.500000",
          "135935.500000",
          "135936.500000",
          "135937.500000",
          "135938.500000",
          "135939.500000",
          "135940.500000",
          "135941.500000",
          "135942.500000",
          "135943.500000",
          "135944.500000",
          "135945.500000",
          "135946.500000",
          "135947.500000",
          "135948.500000",
          "135949.500000",
          "135950.500000",
          "135951.500000",
          "135952.500000",
          "135953.500000",
          "135954.500000",
          "135955.500000",
          "135956.500000",
          "135957.500000",
          "135958.500000",
          "135959.500000",
          "140000.500000",
          "140001.500000",
          "140002.500000",
          "140003.500000",
          "140004.500000",
          "140005.500000",
          "140006.500000",
          "140007.500000",
          "140008.500000",
          "140009.500000",
          "140010.500000",
          "140011.500000",
          "140012.500000",
          "140013.500000",
          "140014.500000",
          "140015.500000",
          "140016.500000",
          "140017.500000",
          "140018.500000",
          "140019.500000",
          "140020.500000",
          "140021.500000",
          "140022.500000",
          "140023.500000",
          "140024.500000",
          "140025.500000",
          "140026.500000",
          "140027.500000",
          "140028.500000",
          "140029.500000",
          "140030.500000",
          "140031.500000",
          "140032.500000",
          "140033.500000",
          "140034.500000",
          "140035.500000",
          "140036.500000",
          "140037.500000",
          "140038.500000",
          "140039.500000",
          "140040.500000",
          "140041.500000",
          "140042.500000",
          "140043.500000",
          "140044.500000",
          "140045.500000",
          "140046.500000",
          "140047.500000",
          "140048.500000",
          "140049.500000",
          "140050.500000",
          "140051.500000",
          "140052.500000",
          "140053.500000",
          "140054.500000",
          "140055.500000",
          "140056.500000",
          "140057.500000",
          "140058.500000",
          "140059.500000",
          "140100.500000",
          "140101.500000",
          "140102.500000",
          "140103.500000",
          "140104.500000",
          "140105.500000",
          "140106.500000",
          "140107.500000",
          "140108.500000",
          "140109.500000",
          "140110.500000",
          "140111.500000",
          "140112.500000",
          "140113.500000",
          "140114.500000",
          "140115.500000",
          "140116.500000",
          "140117.500000",
          "140118.500000",
          "140119.500000",
          "140120.500000",
          "140121.500000",
          "140122.500000",
          "140123.500000",
          "140124.500000",
          "140125.500000",
          "140126.500000",
          "140127.500000",
          "140128.500000",
          "140129.500000",
          "140130.500000",
          "140131.500000",
          "140132.500000",
          "140133.500000",
          "140134.500000",
          "140135.500000",
          "140136.500000",
          "140137.500000"
        ],
        "ContentTime": [
          "135935.381000",
          "135935.384000",
          "135935.387000",
          "135935.390000",
          "135935.393000",
          "135935.398000",
          "135935.401000",
          "135935.404000",
          "135935.407000",
          "135935.410000",
          "135935.413000",
          "135935.416000",
          "135935.419000",
          "135935.422000",
          "135935.425000",
          "135935.428000",
          "135935.431000",
          "135935.434000",
          "135935.444000",
          "135935.447000",
          "135935.450000",
          "135935.453000",
          "135935.456000",
          "135935.459000",
          "135955.348000",
          "135955.351000",
          "135955.354000",
          "135955.357000",
          "135955.360000",
          "135955.363000",
          "135955.366000",
          "135955.369000",
          "135955.380000",
          "135955.383000",
          "135955.386000",
          "135955.389000",
          "135955.392000",
          "135955.395000",
          "135955.398000",
          "135955.401000",
          "135955.404000",
          "135955.407000",
          "135955.410000",
          "135955.413000",
          "135955.415000",
          "135955.418000",
          "135955.421000",
          "135955.424000",
          "135955.427000",
          "135955.430000",
          "135955.433000",
          "135955.437000",
          "140015.348000",
          "140015.351000",
          "140015.354000",
          "140015.357000",
          "140015.360000",
          "140015.363000",
          "140015.366000",
          "140015.389000",
          "140015.392000",
          "140015.395000",
          "140015.398000",
          "140015.401000",
          "140015.404000",
          "140015.407000",
          "140015.410000",
          "140015.413000",
          "140015.416000",
          "140015.419000",
          "140015.422000",
          "140015.425000",
          "140015.428000",
          "140015.431000",
          "140015.434000",
          "140015.437000",
          "140015.440000",
          "140015.443000",
          "140015.446000",
          "140015.449000",
          "140015.452000",
          "140035.348000",
          "140035.351000",
          "140035.354000",
          "140035.357000",
          "140035.360000",
          "140035.363000",
          "140035.366000",
          "140035.369000",
          "140035.372000",
          "140035.375000",
          "140035.378000",
          "140035.381000",
          "140035.384000",
          "140035.387000",
          "140035.390000",
          "140035.393000",
          "140035.395000",
          "140035.399000",
          "140035.402000",
          "140035.405000",
          "140035.408000",
          "140035.411000",
          "140035.413000",
          "140035.416000",
          "140035.419000",
          "140035.422000",
          "140035.425000",
          "140035.428000",
          "140055.348000",
          "140055.351000",
          "140055.354000",
          "140055.357000",
          "140055.360000",
          "140055.363000",
          "140055.366000",
          "140055.369000",
          "140055.372000",
          "140055.375000",
          "140055.378000",
          "140055.381000",
          "140055.384000",
          "140055.387000",
          "140055.390000",
          "140055.392000",
          "140055.395000",
          "140055.399000",
          "140055.402000",
          "140055.404000",
          "140055.408000",
          "140055.411000",
          "140055.414000",
          "140055.417000",
          "140055.420000",
          "140055.423000",
          "140055.425000",
          "140055.429000",
          "140115.348000",
          "140115.351000",
          "140115.354000",
          "140115.357000",
          "140115.360000",
          "140115.363000",
          "140115.366000",
          "140115.369000",
          "140115.372000",
          "140115.375000",
          "140115.378000",
          "140115.381000",
          "140115.384000",
          "140115.387000",
          "140115.390000",
          "140115.393000",
          "140115.396000",
          "140115.399000",
          "140115.410000",
          "140115.413000",
          "140115.416000",
          "140115.419000",
          "140115.422000",
          "140115.425000",
          "140115.428000",
          "140115.430000",
          "140115.433000",
          "140115.436000",
          "140115.439000",
          "140135.348000",
          "140135.351000",
          "140135.354000",
          "140135.357000",
          "140135.360000",
          "140135.363000",
          "140135.366000",
          "140135.369000",
          "140135.372000",
          "140135.375000",
          "140135.378000",
          "140135.381000",
          "140135.384000",
          "140135.387000",
          "140135.390000",
          "140135.393000",
          "140135.396000",
          "140135.399000",
          "140135.402000",
          "140135.405000",
          "140135.408000",
          "140139.529000",
          "140139.532000",
          "140139.535000",
          "140139.538000",
          "140139.541000"
        ],
        "InstanceCreationTime": [
          "135935.381000",
          "135935.384000",
          "135935.387000",
          "135935.390000",
          "135935.393000",
          "135935.398000",
          "135935.401000",
          "135935.404000",
          "135935.407000",
          "135935.410000",
          "135935.413000",
          "135935.416000",
          "135935.419000",
          "135935.422000",
          "135935.425000",
          "135935.428000",
          "135935.431000",
          "135935.434000",
          "135935.444000",
          "135935.447000",
          "135935.450000",
          "135935.453000",
          "135935.456000",
          "135935.459000",
          "135955.348000",
          "135955.351000",
          "135955.354000",
          "135955.357000",
          "135955.360000",
          "135955.363000",
          "135955.366000",
          "135955.369000",
          "135955.380000",
          "135955.383000",
          "135955.386000",
          "135955.389000",
          "135955.392000",
          "135955.395000",
          "135955.398000",
          "135955.401000",
          "135955.404000",
          "135955.407000",
          "135955.410000",
          "135955.413000",
          "135955.415000",
          "135955.418000",
          "135955.421000",
          "135955.424000",
          "135955.427000",
          "135955.430000",
          "135955.433000",
          "135955.437000",
          "140015.348000",
          "140015.351000",
          "140015.354000",
          "140015.357000",
          "140015.360000",
          "140015.363000",
          "140015.366000",
          "140015.389000",
          "140015.392000",
          "140015.395000",
          "140015.398000",
          "140015.401000",
          "140015.404000",
          "140015.407000",
          "140015.410000",
          "140015.413000",
          "140015.416000",
          "140015.419000",
          "140015.422000",
          "140015.425000",
          "140015.428000",
          "140015.431000",
          "140015.434000",
          "140015.437000",
          "140015.440000",
          "140015.443000",
          "140015.446000",
          "140015.449000",
          "140015.452000",
          "140035.348000",
          "140035.351000",
          "140035.354000",
          "140035.357000",
          "140035.360000",
          "140035.363000",
          "140035.366000",
          "140035.369000",
          "140035.372000",
          "140035.375000",
          "140035.378000",
          "140035.381000",
          "140035.384000",
          "140035.387000",
          "140035.390000",
          "140035.393000",
          "140035.395000",
          "140035.399000",
          "140035.402000",
          "140035.405000",
          "140035.408000",
          "140035.411000",
          "140035.413000",
          "140035.416000",
          "140035.419000",
          "140035.422000",
          "140035.425000",
          "140035.428000",
          "140055.348000",
          "140055.351000",
          "140055.354000",
          "140055.357000",
          "140055.360000",
          "140055.363000",
          "140055.366000",
          "140055.369000",
          "140055.372000",
          "140055.375000",
          "140055.378000",
          "140055.381000",
          "140055.384000",
          "140055.387000",
          "140055.390000",
          "140055.392000",
          "140055.395000",
          "140055.399000",
          "140055.402000",
          "140055.404000",
          "140055.408000",
          "140055.411000",
          "140055.414000",
          "140055.417000",
          "140055.420000",
          "140055.423000",
          "140055.425000",
          "140055.429000",
          "140115.348000",
          "140115.351000",
          "140115.354000",
          "140115.357000",
          "140115.360000",
          "140115.363000",
          "140115.366000",
          "140115.369000",
          "140115.372000",
          "140115.375000",
          "140115.378000",
          "140115.381000",
          "140115.384000",
          "140115.387000",
          "140115.390000",
          "140115.393000",
          "140115.396000",
          "140115.399000",
          "140115.410000",
          "140115.413000",
          "140115.416000",
          "140115.419000",
          "140115.422000",
          "140115.425000",
          "140115.428000",
          "140115.430000",
          "140115.433000",
          "140115.436000",
          "140115.439000",
          "140135.348000",
          "140135.351000",
          "140135.354000",
          "140135.357000",
          "140135.360000",
          "140135.363000",
          "140135.366000",
          "140135.369000",
          "140135.372000",
          "140135.375000",
          "140135.378000",
          "140135.381000",
          "140135.384000",
          "140135.387000",
          "140135.390000",
          "140135.393000",
          "140135.396000",
          "140135.399000",
          "140135.402000",
          "140135.405000",
          "140135.408000",
          "140139.529000",
          "140139.532000",
          "140139.535000",
          "140139.538000",
          "140139.541000"
        ],
        "InstanceNumber": [
          1,
          2,
          3,
          4,
          5,
          6,
          7,
          8,
          9,
          10,
          11,
          12,
          13,
          14,
          15,
          16,
          17,
          18,
          19,
          20,
          21,
          22,
          23,
          24,
          25,
          26,
          27,
          28,
          29,
          30,
          31,
          32,
          33,
          34,
          35,
          36,
          37,
          38,
          39,
          40,
          41,
          42,
          43,
          44,
          45,
          46,
          47,
          48,
          49,
          50,
          51,
          52,
          53,
          54,
          55,
          56,
          57,
          58,
          59,
          60,
          61,
          62,
          63,
          64,
          65,
          66,
          67,
          68,
          69,
          70,
          71,
          72,
          73,
          74,
          75,
          76,
          77,
          78,
          79,
          80,
          81,
          82,
          83,
          84,
          85,
          86,
          87,
          88,
          89,
          90,
          91,
          92,
          93,
          94,
          95,
          96,
          97,
          98,
          99,
          100,
          101,
          102,
          103,
          104,
          105,
          106,
          107,
          108,
          109,
          110,
          111,
          112,
          113,
          114,
          115,
          116,
          117,
          118,
          119,
          120,
          121,
          122,
          123,
          124,
          125,
          126,
          127,
          128,
          129,
          130,
          131,
          132,
          133,
          134,
          135,
          136,
          137,
          138,
          139,
          140,
          141,
          142,
          143,
          144,
          145,
          146,
          147,
          148,
          149,
          150,
          151,
          152,
          153,
          154,
          155,
          156,
          157,
          158,
          159,
          160,
          161,
          162,
          163,
          164,
          165,
          166,
          167,
          168,
          169,
          170,
          171,
          172,
          173,
          174,
          175,
          176,
          177,
          178,
          179,
          180,
          181,
          182,
          183,
          184,
          185,
          186,
          187,
          188,
          189,
          190,
          191,
          192
        ],
        "LargestImagePixelValue": [
          39140,
          37842,
          37139,
          36905,
          36708,
          36407,
          36628,
          36946,
          36846,
          36723,
          36996,
          36334,
          36158,
          36662,
          36742,
          36797,
          36249,
          36250,
          36920,
          36206,
          36873,
          36606,
          36973,
          36398,
          36314,
          36715,
          36514,
          36185,
          37013,
          36330,
          36610,
          36610,
          36684,
          36160,
          36010,
          36768,
          36454,
          36218,
          36794,
          36290,
          35873,
          39017,
          36816,
          36553,
          35981,
          39031,
          36219,
          36638,
          36504,
          36150,
          36277,
          36645,
          36450,
          36457,
          36732,
          36228,
          36314,
          36534,
          36631,
          36315,
          36060,
          36572,
          36113,
          36344,
          36564,
          36745,
          36714,
          36588,
          36581,
          36223,
          35929,
          36569,
          36707,
          35942,
          36312,
          36315,
          36035,
          36349,
          36819,
          36222,
          35984,
          36414,
          36312,
