{
  "aor": 0.0008466145833333333,
  "aqi": 0.00940161703125,
  "bids_meta": {
    "AcquisitionMatrixPE": 104,
    "AcquisitionNumber": 1,
    "AcquisitionTime": "11:43:13.462500",
    "BandwidthPerPixelPhaseEncode": 16.578,
    "BaseResolution": 104,
    "BodyPartExamined": "BRAIN",
    "CogAtlasID": "TODO",
    "ConsistencyInfo": "N4_VE11C_LATEST_20160120",
    "ConversionSoftware": "dcm2niix",
    "ConversionSoftwareVersion": "v1.0.20190902",
    "DerivedVendorReportedEchoSpacing": 0.000580009,
    "DeviceSerialNumber": "166018",
    "DwellTime": 2.1e-06,
    "EchoTime": 0.037,
    "EchoTrainLength": 104,
    "EffectiveEchoSpacing": 0.000580009,
    "FlipAngle": 68,
    "ImageComments": "Unaliased_MB6_PE3_LB",
    "ImageOrientationPatientDICOM": [
      0.997454,
      0.0494553,
      0.0513702,
      -0.0355291,
      0.9693,
      -0.2433
    ],
    "ImageType": [
      "ORIGINAL",
      "PRIMARY",
      "M",
      "MB",
      "ND",
      "MOSAIC"
    ],
    "ImagingFrequency": 123.191,
    "InPlanePhaseEncodingDirectionDICOM": "COL",
    "InstitutionAddress": "Washington_Place_6_NYC_NYC_US_10003",
    "InstitutionName": "NYU_-_CBI",
    "InstitutionalDepartmentName": "Department",
    "MRAcquisitionType": "2D",
    "MagneticFieldStrength": 3,
    "Manufacturer": "Siemens",
    "ManufacturersModelName": "Prisma",
    "Modality": "MR",
    "MultibandAccelerationFactor": 6,
    "NumberOfVolumes": 192,
    "PartialFourier": 1,
    "PatientPosition": "HFS",
    "PercentPhaseFOV": 100,
    "PhaseEncodingDirection": "j",
    "PhaseEncodingSteps": 104,
    "PhaseResolution": 1,
    "PixelBandwidth": 2290,
    "ProcedureStepDescription": "Investigators_Winawer",
    "ProtocolName": "cmrr_mbepi_s6_2mm_66sl_PA_task-prf",
    "PulseSequenceDetails": "%CustomerSeq%_cmrr_mbep2d_bold",
    "ReceiveCoilActiveElements": "HC1-7",
    "ReceiveCoilName": "HeadNeck_64",
    "ReconMatrixPE": 104,
    "RepetitionTime": 1,
    "SAR": 0.0890984,
    "ScanOptions": "FS",
    "ScanningSequence": "EP",
    "SequenceName": "epfid2d1_104",
    "SequenceVariant": "SK_SS",
    "SeriesDescription": "cmrr_mbepi_s6_2mm_66sl_PA_task-prf",
    "SeriesNumber": 10,
    "ShimSetting": [
      284,
      -12595,
      -8423,
      298,
      -9,
      -94,
      25,
      46
    ],
    "SliceThickness": 2,
    "SliceTiming": [
      0,
      0.535,
      0.09,
      0.625,
      0.1775,
      0.7125,
      0.2675,
      0.8025,
      0.3575,
      0.89,
      0.445,
      0,
      0.535,
      0.09,
      0.625,
      0.1775,
      0.7125,
      0.2675,
      0.8025,
      0.3575,
      0.89,
      0.445,
      0,
      0.535,
      0.09,
      0.625,
      0.1775,
      0.7125,
      0.2675,
      0.8025,
      0.3575,
      0.89,
      0.445,
      0,
      0.535,
      0.09,
      0.625,
      0.1775,
      0.7125,
      0.2675,
      0.8025,
      0.3575,
      0.89,
      0.445,
      0,
      0.535,
      0.09,
      0.625,
      0.1775,
      0.7125,
      0.2675,
      0.8025,
      0.3575,
      0.89,
      0.445,
      0,
      0.535,
      0.09,
      0.625,
      0.1775,
      0.7125,
      0.2675,
      0.8025,
      0.3575,
      0.89,
      0.445
    ],
    "SoftwareVersions": "syngo_MR_E11",
    "SpacingBetweenSlices": 2,
    "StationName": "AWP166018",
    "TaskName": "prf",
    "TotalReadoutTime": 0.0597409,
    "TxRefAmp": 256.678,
    "WipMemBlock": "cd89f708-a4ed-4756-bef9-2ea59794eb23||Sequence: R016 ve11c/master r/8780670; Nov 27 2017 15:05:12 by eja",
    "acq_id": "PA",
    "dataset": "unknown",
    "dcmmeta_affine": [
      [
        -1.9949088096618652,
        -0.07105818390846252,
        0.12365120649337769,
        110.35638427734375
      ],
      [
        -0.09891056269407272,
        1.9386004209518433,
        -0.481710821390152,
        -69.56803894042969
      ],
      [
        0.10274039208889008,
        0.48659980297088623,
        1.937179684638977,
        -62.84848403930664
      ],
      [
        0.0,
        0.0,
        0.0,
        1.0
      ]
    ],
    "dcmmeta_reorient_transform": [
      [
        0.0,
        -1.0,
        0.0,
        103.0
      ],
      [
        1.0,
        0.0,
        0.0,
        0.0
      ],
      [
        0.0,
        0.0,
        1.0,
        0.0
      ],
      [
        0.0,
        0.0,
        0.0,
        1.0
      ]
    ],
    "dcmmeta_shape": [
      104,
      104,
      66,
      192
    ],
    "dcmmeta_slice_dim": 2,
    "dcmmeta_version": 0.6,
    "global": {
      "const": {
        "AccessionNumber": "ju9s08kb",
        "AcquisitionMatrix": [
          104,
          0,
          0,
          104
        ],
        "AngioFlag": "N",
        "BitsAllocated": 16,
        "BitsStored": 16,
        "BodyPartExamined": "BRAIN",
        "Columns": 936,
        "EchoNumbers": 1,
        "EchoTime": 37.0,
        "EchoTrainLength": 104,
        "FlipAngle": 68.0,
        "HighBit": 15,
        "ImageOrientationPatient": [
          0.99745439915999,
          0.04945528005028,
          0.05137019438873,
          -0.0355290918762,
          0.96930018254229,
          -0.2432998967405
        ],
        "ImagePositionPatient": [
          -903.35924447605,
          -977.71234717854,
          146.95680549671
        ],
        "ImageType": [
          "ORIGINAL",
          "PRIMARY",
          "M",
          "MB",
          "ND",
          "MOSAIC"
        ],
        "ImagedNucleus": "1H",
        "ImagingFrequency": 123.190985,
        "InPlanePhaseEncodingDirection": "COL",
        "MRAcquisitionType": "2D",
        "MagneticFieldStrength": 3.0,
        "Manufacturer": "SIEMENS",
        "ManufacturerModelName": "Prisma",
        "Modality": "MR",
        "NumberOfAverages": 1.0,
        "NumberOfPhaseEncodingSteps": 104,
        "PercentPhaseFieldOfView": 100.0,
        "PercentSampling": 100.0,
        "PerformedProcedureStepStartTime": "112027.521000",
        "PhotometricInterpretation": "MONOCHROME2",
        "PixelBandwidth": 2290.0,
        "PixelRepresentation": 0,
        "PixelSpacing": [
          2.0,
          2.0
        ],
        "ProtocolName": "cmrr_mbepi_s6_2mm_66sl_PA_task-prf",
        "RepetitionTime": 1000.0,
        "Rows": 936,
        "SAR": 0.0890984105316,
        "SamplesPerPixel": 1,
        "ScanOptions": "FS",
        "ScanningSequence": "EP",
        "SequenceName": "epfid2d1_104",
        "SequenceVariant": [
          "SK",
          "SS"
        ],
        "SeriesDescription": "cmrr_mbepi_s6_2mm_66sl_PA_task-prf",
        "SeriesNumber": 10,
        "SeriesTime": "114413.407000",
        "SliceLocation": -37.295716158282,
        "SliceThickness": 2.0,
        "SmallestImagePixelValue": 0,
        "SoftwareVersions": "syngo MR E11",
        "SpacingBetweenSlices": 1.9999999633369,
        "SpecificCharacterSet": "ISO_IR 100",
        "StudyID": "1",
        "StudyTime": "112027.455000",
        "TransmitCoilName": "Body",
        "VariableFlipAngleFlag": "N",
        "WindowCenterWidthExplanation": "Algo1",
        "dBdt": 0.0
      },
      "slices": {}
    },
    "modality": "bold",
    "run_id": 2,
    "session_id": "nyu3t01",
    "subject_id": "wlsubj084",
    "task_id": "prf",
    "time": {
      "samples": {
        "AcquisitionNumber": [
          1,
          2,
          3,
          4,
          5,
          6,
          7,
          8,
          9,
          10,
          11,
          12,
          13,
          14,
          15,
          16,
          17,
          18,
          19,
          20,
          21,
          22,
          23,
          24,
          25,
          26,
          27,
          28,
          29,
          30,
          31,
          32,
          33,
          34,
          35,
          36,
          37,
          38,
          39,
          40,
          41,
          42,
          43,
          44,
          45,
          46,
          47,
          48,
          49,
          50,
          51,
          52,
          53,
          54,
          55,
          56,
          57,
          58,
          59,
          60,
          61,
          62,
          63,
          64,
          65,
          66,
          67,
          68,
          69,
          70,
          71,
          72,
          73,
          74,
          75,
          76,
          77,
          78,
          79,
          80,
          81,
          82,
          83,
          84,
          85,
          86,
          87,
          88,
          89,
          90,
          91,
          92,
          93,
          94,
          95,
          96,
          97,
          98,
          99,
          100,
          101,
          102,
          103,
          104,
          105,
          106,
          107,
          108,
          109,
          110,
          111,
          112,
          113,
          114,
          115,
          116,
          117,
          118,
          119,
          120,
          121,
          122,
          123,
          124,
          125,
          126,
          127,
          128,
          129,
          130,
          131,
          132,
          133,
          134,
          135,
          136,
          137,
          138,
          139,
          140,
          141,
          142,
          143,
          144,
          145,
          146,
          147,
          148,
          149,
          150,
          151,
          152,
          153,
          154,
          155,
          156,
          157,
          158,
          159,
          160,
          161,
          162,
          163,
          164,
          165,
          166,
          167,
          168,
          169,
          170,
          171,
          172,
          173,
          174,
          175,
          176,
          177,
          178,
          179,
          180,
          181,
          182,
          183,
          184,
          185,
          186,
          187,
          188,
          189,
          190,
          191,
          192
        ],
        "AcquisitionTime": [
          "114313.462500",
          "114314.462500",
          "114315.462500",
          "114316.462500",
          "114317.462500",
          "114318.462500",
          "114319.462500",
          "114320.462500",
          "114321.462500",
          "114322.462500",
          "114323.462500",
          "114324.462500",
          "114325.462500",
          "114326.462500",
          "114327.462500",
          "114328.462500",
          "114329.462500",
          "114330.462500",
          "114331.462500",
          "114332.462500",
          "114333.462500",
          "114334.462500",
          "114335.462500",
          "114336.462500",
          "114337.462500",
          "114338.462500",
          "114339.462500",
          "114340.462500",
          "114341.462500",
          "114342.462500",
          "114343.462500",
          "114344.462500",
          "114345.462500",
          "114346.462500",
          "114347.462500",
          "114348.462500",
          "114349.462500",
          "114350.462500",
          "114351.462500",
          "114352.462500",
          "114353.462500",
          "114354.462500",
          "114355.462500",
          "114356.462500",
          "114357.462500",
          "114358.462500",
          "114359.462500",
          "114400.462500",
          "114401.462500",
          "114402.462500",
          "114403.462500",
          "114404.462500",
          "114405.462500",
          "114406.462500",
          "114407.462500",
          "114408.462500",
          "114409.462500",
          "114410.462500",
          "114411.462500",
          "114412.462500",
          "114413.462500",
          "114414.462500",
          "114415.462500",
          "114416.462500",
          "114417.462500",
          "114418.462500",
          "114419.462500",
          "114420.462500",
          "114421.462500",
          "114422.462500",
          "114423.462500",
          "114424.462500",
          "114425.462500",
          "114426.462500",
          "114427.462500",
          "114428.462500",
          "114429.462500",
          "114430.462500",
          "114431.462500",
          "114432.462500",
          "114433.462500",
          "114434.462500",
          "114435.462500",
          "114436.462500",
          "114437.462500",
          "114438.462500",
          "114439.462500",
          "114440.462500",
          "114441.462500",
          "114442.462500",
          "114443.462500",
          "114444.462500",
          "114445.462500",
          "114446.462500",
          "114447.462500",
          "114448.462500",
          "114449.462500",
          "114450.462500",
          "114451.462500",
          "114452.462500",
          "114453.462500",
          "114454.462500",
          "114455.462500",
          "114456.462500",
          "114457.462500",
          "114458.462500",
          "114459.462500",
          "114500.462500",
          "114501.462500",
          "114502.462500",
          "114503.462500",
          "114504.462500",
          "114505.462500",
          "114506.462500",
          "114507.462500",
          "114508.462500",
          "114509.462500",
          "114510.462500",
          "114511.462500",
          "114512.462500",
          "114513.462500",
          "114514.462500",
          "114515.462500",
          "114516.462500",
          "114517.462500",
          "114518.462500",
          "114519.462500",
          "114520.462500",
          "114521.462500",
          "114522.462500",
          "114523.462500",
          "114524.462500",
          "114525.462500",
          "114526.462500",
          "114527.462500",
          "114528.462500",
          "114529.462500",
          "114530.462500",
          "114531.462500",
          "114532.462500",
          "114533.462500",
          "114534.462500",
          "114535.462500",
          "114536.462500",
          "114537.462500",
          "114538.462500",
          "114539.462500",
          "114540.462500",
          "114541.462500",
          "114542.462500",
          "114543.462500",
          "114544.462500",
          "114545.462500",
          "114546.462500",
          "114547.462500",
          "114548.462500",
          "114549.462500",
          "114550.462500",
          "114551.462500",
          "114552.462500",
          "114553.462500",
          "114554.462500",
          "114555.462500",
          "114556.462500",
          "114557.462500",
          "114558.462500",
          "114559.462500",
          "114600.462500",
          "114601.462500",
          "114602.462500",
          "114603.462500",
          "114604.462500",
          "114605.462500",
          "114606.462500",
          "114607.462500",
          "114608.462500",
          "114609.462500",
          "114610.462500",
          "114611.462500",
          "114612.462500",
          "114613.462500",
          "114614.462500",
          "114615.462500",
          "114616.462500",
          "114617.462500",
          "114618.462500",
          "114619.462500",
          "114620.462500",
          "114621.462500",
          "114622.462500",
          "114623.462500",
          "114624.462500"
        ],
        "ContentTime": [
          "114413.409000",
          "114413.413000",
          "114413.416000",
          "114413.419000",
          "114413.422000",
          "114413.439000",
          "114413.442000",
          "114418.408000",
          "114418.411000",
          "114418.414000",
          "114418.417000",
          "114418.420000",
          "114418.423000",
          "114418.426000",
          "114423.408000",
          "114423.411000",
          "114423.414000",
          "114423.417000",
          "114423.420000",
          "114423.423000",
          "114423.426000",
          "114428.409000",
          "114428.412000",
          "114428.420000",
          "114428.423000",
          "114428.426000",
          "114428.429000",
          "114428.432000",
          "114433.408000",
          "114433.411000",
          "114433.414000",
          "114433.417000",
          "114433.420000",
          "114433.423000",
          "114433.426000",
          "114438.408000",
          "114438.411000",
          "114438.414000",
          "114438.417000",
          "114438.420000",
          "114438.423000",
          "114438.426000",
          "114443.408000",
          "114443.411000",
          "114443.414000",
          "114443.417000",
          "114443.420000",
          "114443.423000",
          "114443.426000",
          "114448.408000",
          "114448.411000",
          "114448.414000",
          "114448.417000",
          "114448.428000",
          "114448.431000",
          "114448.434000",
          "114453.408000",
          "114453.411000",
          "114453.414000",
          "114453.417000",
          "114453.420000",
          "114453.423000",
          "114453.426000",
          "114458.408000",
          "114458.411000",
          "114458.414000",
          "114458.417000",
          "114458.420000",
          "114458.423000",
          "114458.426000",
          "114503.409000",
          "114503.412000",
          "114503.415000",
          "114503.418000",
          "114503.421000",
          "114503.424000",
          "114503.427000",
          "114508.408000",
          "114508.411000",
          "114508.414000",
          "114508.417000",
          "114508.420000",
          "114508.423000",
          "114508.426000",
          "114513.408000",
          "114513.411000",
          "114513.414000",
          "114513.417000",
          "114513.420000",
          "114513.423000",
          "114513.426000",
          "114518.408000",
          "114518.411000",
          "114518.414000",
          "114518.417000",
          "114518.420000",
          "114518.423000",
          "114518.426000",
          "114518.429000",
          "114523.408000",
          "114523.411000",
          "114523.414000",
          "114523.417000",
          "114523.420000",
          "114523.423000",
          "114523.426000",
          "114528.408000",
          "114528.411000",
          "114528.414000",
          "114528.417000",
          "114528.435000",
          "114528.438000",
          "114528.441000",
          "114533.408000",
          "114533.411000",
          "114533.414000",
          "114533.417000",
          "114533.420000",
          "114533.423000",
          "114538.409000",
          "114538.412000",
          "114538.415000",
          "114538.418000",
          "114538.421000",
          "114538.424000",
          "114538.427000",
          "114538.430000",
          "114543.408000",
          "114543.411000",
          "114543.414000",
          "114543.417000",
          "114543.420000",
          "114543.423000",
          "114543.426000",
          "114548.408000",
          "114548.411000",
          "114548.414000",
          "114548.417000",
          "114548.420000",
          "114548.423000",
          "114548.426000",
          "114553.408000",
          "114553.411000",
          "114553.414000",
          "114553.417000",
          "114553.421000",
          "114553.424000",
          "114553.427000",
          "114558.408000",
          "114558.411000",
          "114558.414000",
          "114558.417000",
          "114558.420000",
          "114558.423000",
          "114558.426000",
          "114603.408000",
          "114603.411000",
          "114603.414000",
          "114603.417000",
          "114603.420000",
          "114603.423000",
          "114603.426000",
          "114613.409000",
          "114613.412000",
          "114613.415000",
          "114613.418000",
          "114613.421000",
          "114613.424000",
          "114613.427000",
          "114613.430000",
          "114613.433000",
          "114613.436000",
          "114613.439000",
          "114613.447000",
          "114613.450000",
          "114613.453000",
          "114618.408000",
          "114618.411000",
          "114618.414000",
          "114618.417000",
          "114618.420000",
          "114618.423000",
          "114618.426000",
          "114623.408000",
          "114623.411000",
          "114623.414000",
          "114623.417000",
          "114623.420000",
          "114623.423000",
          "114625.769000",
          "114625.773000",
          "114625.776000"
        ],
        "InstanceCreationTime": [
          "114413.409000",
          "114413.413000",
          "114413.416000",
          "114413.419000",
          "114413.422000",
          "114413.439000",
          "114413.442000",
          "114418.408000",
          "114418.411000",
          "114418.414000",
          "114418.417000",
          "114418.420000",
          "114418.423000",
          "114418.426000",
          "114423.408000",
          "114423.411000",
          "114423.414000",
          "114423.417000",
          "114423.420000",
          "114423.423000",
          "114423.426000",
          "114428.409000",
          "114428.412000",
          "114428.420000",
          "114428.423000",
          "114428.426000",
          "114428.429000",
          "114428.432000",
          "114433.408000",
          "114433.411000",
          "114433.414000",
          "114433.417000",
          "114433.420000",
          "114433.423000",
          "114433.426000",
          "114438.408000",
          "114438.411000",
          "114438.414000",
          "114438.417000",
          "114438.420000",
          "114438.423000",
          "114438.426000",
          "114443.408000",
          "114443.411000",
          "114443.414000",
          "114443.417000",
          "114443.420000",
          "114443.423000",
          "114443.426000",
          "114448.408000",
          "114448.411000",
          "114448.414000",
          "114448.417000",
          "114448.428000",
          "114448.431000",
          "114448.434000",
          "114453.408000",
          "114453.411000",
          "114453.414000",
          "114453.417000",
          "114453.420000",
          "114453.423000",
          "114453.426000",
          "114458.408000",
          "114458.411000",
          "114458.414000",
          "114458.417000",
          "114458.420000",
          "114458.423000",
          "114458.426000",
          "114503.409000",
          "114503.412000",
          "114503.415000",
          "114503.418000",
          "114503.421000",
          "114503.424000",
          "114503.427000",
          "114508.408000",
          "114508.411000",
          "114508.414000",
          "114508.417000",
          "114508.420000",
          "114508.423000",
          "114508.426000",
          "114513.408000",
          "114513.411000",
          "114513.414000",
          "114513.417000",
          "114513.420000",
          "114513.423000",
          "114513.426000",
          "114518.408000",
          "114518.411000",
          "114518.414000",
          "114518.417000",
          "114518.420000",
          "114518.423000",
          "114518.426000",
          "114518.429000",
          "114523.408000",
          "114523.411000",
          "114523.414000",
          "114523.417000",
          "114523.420000",
          "114523.423000",
          "114523.426000",
          "114528.408000",
          "114528.411000",
          "114528.414000",
          "114528.417000",
          "114528.435000",
          "114528.438000",
          "114528.441000",
          "114533.408000",
          "114533.411000",
          "114533.414000",
          "114533.417000",
          "114533.420000",
          "114533.423000",
          "114538.409000",
          "114538.412000",
          "114538.415000",
          "114538.418000",
          "114538.421000",
          "114538.424000",
          "114538.427000",
          "114538.430000",
          "114543.408000",
          "114543.411000",
          "114543.414000",
          "114543.417000",
          "114543.420000",
          "114543.423000",
          "114543.426000",
          "114548.408000",
          "114548.411000",
          "114548.414000",
          "114548.417000",
          "114548.420000",
          "114548.423000",
          "114548.426000",
          "114553.408000",
          "114553.411000",
          "114553.414000",
          "114553.417000",
          "114553.421000",
          "114553.424000",
          "114553.427000",
          "114558.408000",
          "114558.411000",
          "114558.414000",
          "114558.417000",
          "114558.420000",
          "114558.423000",
          "114558.426000",
          "114603.408000",
          "114603.411000",
          "114603.414000",
          "114603.417000",
          "114603.420000",
          "114603.423000",
          "114603.426000",
          "114613.409000",
          "114613.412000",
          "114613.415000",
          "114613.418000",
          "114613.421000",
          "114613.424000",
          "114613.427000",
          "114613.430000",
          "114613.433000",
          "114613.436000",
          "114613.439000",
          "114613.447000",
          "114613.450000",
          "114613.453000",
          "114618.408000",
          "114618.411000",
          "114618.414000",
          "114618.417000",
          "114618.420000",
          "114618.423000",
          "114618.426000",
          "114623.408000",
          "114623.411000",
          "114623.414000",
          "114623.417000",
          "114623.420000",
          "114623.423000",
          "114625.769000",
          "114625.773000",
          "114625.776000"
        ],
        "InstanceNumber": [
          1,
          2,
          3,
          4,
          5,
          6,
          7,
          8,
          9,
          10,
          11,
          12,
          13,
          14,
          15,
          16,
          17,
          18,
          19,
          20,
          21,
          22,
          23,
          24,
          25,
          26,
          27,
          28,
          29,
          30,
          31,
          32,
          33,
          34,
          35,
          36,
          37,
          38,
          39,
          40,
          41,
          42,
          43,
          44,
          45,
          46,
          47,
          48,
          49,
          50,
          51,
          52,
          53,
          54,
          55,
          56,
          57,
          58,
          59,
          60,
          61,
          62,
          63,
          64,
          65,
          66,
          67,
          68,
          69,
          70,
          71,
          72,
          73,
          74,
          75,
          76,
          77,
          78,
          79,
          80,
          81,
          82,
          83,
          84,
          85,
          86,
          87,
          88,
          89,
          90,
          91,
          92,
          93,
          94,
          95,
          96,
          97,
          98,
          99,
          100,
          101,
          102,
          103,
          104,
          105,
          106,
          107,
          108,
          109,
          110,
          111,
          112,
          113,
          114,
          115,
          116,
          117,
          118,
          119,
          120,
          121,
          122,
          123,
          124,
          125,
          126,
          127,
          128,
          129,
          130,
          131,
          132,
          133,
          134,
          135,
          136,
          137,
          138,
          139,
          140,
          141,
          142,
          143,
          144,
          145,
          146,
          147,
          148,
          149,
          150,
          151,
          152,
          153,
          154,
          155,
          156,
          157,
          158,
          159,
          160,
          161,
          162,
          163,
          164,
          165,
          166,
          167,
          168,
          169,
          170,
          171,
          172,
          173,
          174,
          175,
          176,
          177,
          178,
          179,
          180,
          181,
          182,
          183,
          184,
          185,
          186,
          187,
          188,
          189,
          190,
          191,
          192
        ],
        "LargestImagePixelValue": [
          34314,
          32758,
          31739,
          32037,
          31335,
          31421,
          31119,
          31342,
          31643,
          31426,
          32404,
          33699,
          31564,
          31655,
          31803,
          33073,
          32172,
          31571,
          31916,
          32021,
          32320,
          31694,
          31967,
          31980,
          31530,
          31989,
          31373,
          31297,
          33168,
          31855,
          32106,
          32857,
          31680,
          31792,
          31726,
          31938,
          32650,
          31698,
          31645,
          32526,
          32340,
          31431,
          31999,
          32158,
          32730,
          31703,
          31988,
          31969,
          31207,
          32397,
          32178,
          31675,
          31671,
          31286,
          32931,
          32870,
          31931,
          31358,
          31362,
          31068,
          32325,
          31941,
          32148,
          32265,
          32322,
          31511,
          31801,
          32137,
          31827,
          31894,
          31839,
          31593,
          31807,
          32658,
          32037,
          31735,
          31984,
          32028,
          31802,
          31530,
          32067,
          31729,
          31889,
          31821,
