{
  "AcquisitionMatrixPE": 104,
  "AcquisitionNumber": 1,
  "AcquisitionTime": "18:40:45.485000",
  "BandwidthPerPixelPhaseEncode": 16.578,
  "BaseResolution": 104,
  "BodyPartExamined": "BRAIN",
  "ConsistencyInfo": "N4_VE11C_LATEST_20160120",
  "ConversionSoftware": "dcm2niix",
  "ConversionSoftwareVersion": "v1.0.20190902",
  "DerivedVendorReportedEchoSpacing": 0.000580009,
  "DeviceSerialNumber": "166018",
  "DwellTime": 2.1e-06,
  "EchoTime": 0.037,
  "EchoTrainLength": 104,
  "EffectiveEchoSpacing": 0.000580009,
  "FlipAngle": 68,
  "ImageComments": "Unaliased_MB6_PE3_LB",
  "ImageOrientationPatientDICOM": [0.996577, 0.0590126, -0.0579027, -0.0770323, 0.917103, -0.391138],
  "ImageType": [
    "ORIGINAL",
    "PRIMARY",
    "M",
    "MB",
    "ND",
    "MOSAIC"
],
  "ImagingFrequency": 123.191,
  "InPlanePhaseEncodingDirectionDICOM": "COL",
  "InstitutionAddress": "Washington_Place_6_NYC_NYC_US_10003",
  "InstitutionName": "NYU_Center_for_Brain_Imaging",
  "InstitutionalDepartmentName": "Department",
  "MRAcquisitionType": "2D",
  "MagneticFieldStrength": 3,
  "Manufacturer": "Siemens",
  "ManufacturersModelName": "Prisma",
  "Modality": "MR",
  "MultibandAccelerationFactor": 6,
  "PartialFourier": 1,
  "PatientPosition": "HFS",
  "PercentPhaseFOV": 100,
  "PhaseEncodingDirection": "j",
  "PhaseEncodingSteps": 104,
  "PhaseResolution": 1,
  "PixelBandwidth": 2290,
  "ProcedureStepDescription": "Investigators_Winawer",
  "ProtocolName": "cmrr_mbepi_s6_2mm_66sl_PA_task-prf",
  "PulseSequenceDetails": "%CustomerSeq%_cmrr_mbep2d_bold",
  "ReceiveCoilActiveElements": "HC1-7",
  "ReceiveCoilName": "HeadNeck_64",
  "ReconMatrixPE": 104,
  "RepetitionTime": 1,
  "SAR": 0.0828852,
  "ScanOptions": "FS",
  "ScanningSequence": "EP",
  "SequenceName": "epfid2d1_104",
  "SequenceVariant": "SK_SS",
  "SeriesDescription": "cmrr_mbepi_s6_2mm_66sl_PA_task-prf",
  "SeriesNumber": 16,
  "ShimSetting": [258, -12620, -8443, 128, -29, -268, 128, -7],
  "SliceThickness": 2,
  "SliceTiming": [0, 0.535, 0.09, 0.625, 0.18, 0.7125, 0.2675, 0.8025, 0.3575, 0.8925, 0.445, 0, 0.535, 0.09, 0.625, 0.18, 0.7125, 0.2675, 0.8025, 0.3575, 0.8925, 0.445, 0, 0.535, 0.09, 0.625, 0.18, 0.7125, 0.2675, 0.8025, 0.3575, 0.8925, 0.445, 0, 0.535, 0.09, 0.625, 0.18, 0.7125, 0.2675, 0.8025, 0.3575, 0.8925, 0.445, 0, 0.535, 0.09, 0.625, 0.18, 0.7125, 0.2675, 0.8025, 0.3575, 0.8925, 0.445, 0, 0.535, 0.09, 0.625, 0.18, 0.7125, 0.2675, 0.8025, 0.3575, 0.8925, 0.445],
  "SoftwareVersions": "syngo_MR_E11",
  "SpacingBetweenSlices": 2,
  "StationName": "AWP166018",
  "TaskName": "prf",
  "TotalReadoutTime": 0.0597409,
  "TxRefAmp": 296.745,
  "WipMemBlock": "3c541e7f-98d7-4f03-b6e2-b1b52198130a||Sequence: R016 ve11c/master r/8780670; Nov 27 2017 15:05:12 by eja",
  "dcmmeta_affine": [
    [-1.9931530952453613, -0.1540645807981491, -0.06004129722714424, 114.59999084472656],
    [-0.11802522838115692, 1.8342050313949585, -0.7885187864303589, -41.05567932128906],
    [-0.11580543220043182, 0.7822761535644531, 1.8370174169540405, -90.5193099975586],
    [0.0, 0.0, 0.0, 1.0]
],
  "dcmmeta_reorient_transform": [
    [0.0, -1.0, 0.0, 103.0],
    [1.0, 0.0, 0.0, 0.0],
    [0.0, 0.0, 1.0, 0.0],
    [0.0, 0.0, 0.0, 1.0]
],
  "dcmmeta_shape": [104, 104, 66, 192],
  "dcmmeta_slice_dim": 2,
  "dcmmeta_version": 0.6,
  "global": {
    "const": {
      "AccessionNumber": "juoe4h70",
      "AcquisitionMatrix": [104, 0, 0, 104],
      "AngioFlag": "N",
      "BitsAllocated": 16,
      "BitsStored": 16,
      "BodyPartExamined": "BRAIN",
      "Columns": 936,
      "EchoNumbers": 1,
      "EchoTime": 37.0,
      "EchoTrainLength": 104,
      "FlipAngle": 68.0,
      "HighBit": 15,
      "ImageOrientationPatient": [0.99657653322473, 0.05901261459881, -0.0579027179327, -0.0770322924479, 0.9171025230861, -0.3911380677834],
      "ImagePositionPatient": [-863.79214994481, -959.99523600564, 363.6570643463],
      "ImageType": [
        "ORIGINAL",
        "PRIMARY",
        "M",
        "MB",
        "ND",
        "MOSAIC"
],
      "ImagedNucleus": "1H",
      "ImagingFrequency": 123.1908,
      "InPlanePhaseEncodingDirection": "COL",
      "MRAcquisitionType": "2D",
      "MagneticFieldStrength": 3.0,
      "Manufacturer": "SIEMENS",
      "ManufacturerModelName": "Prisma",
      "Modality": "MR",
      "NumberOfAverages": 1.0,
      "NumberOfPhaseEncodingSteps": 104,
      "PercentPhaseFieldOfView": 100.0,
      "PercentSampling": 100.0,
      "PerformedProcedureStepStartTime": "181438.603000",
      "PhotometricInterpretation": "MONOCHROME2",
      "PixelBandwidth": 2290.0,
      "PixelRepresentation": 0,
      "PixelSpacing": [2.0, 2.0],
      "ProtocolName": "cmrr_mbepi_s6_2mm_66sl_PA_task-prf",
      "RepetitionTime": 1000.0,
      "Rows": 936,
      "SAR": 0.08288520553617,
      "SamplesPerPixel": 1,
      "ScanOptions": "FS",
      "ScanningSequence": "EP",
      "SequenceName": "epfid2d1_104",
      "SequenceVariant": [
        "SK",
        "SS"
],
      "SeriesDescription": "cmrr_mbepi_s6_2mm_66sl_PA_task-prf",
      "SeriesNumber": 16,
      "SeriesTime": "184140.820000",
      "SliceLocation": -70.396556808517,
      "SliceThickness": 2.0,
      "SmallestImagePixelValue": 0,
      "SoftwareVersions": "syngo MR E11",
      "SpacingBetweenSlices": 2.0000000053617,
      "SpecificCharacterSet": "ISO_IR 100",
      "StudyID": "1",
      "StudyTime": "181438.533000",
      "TransmitCoilName": "Body",
      "VariableFlipAngleFlag": "N",
      "WindowCenterWidthExplanation": "Algo1",
      "dBdt": 0.0},
    "slices": {}
  },
  "time": {
    "samples": {
      "AcquisitionNumber": [1, 2, 3, 4, 5, 6, 7, 8, 9, 10, 11, 12, 13, 14, 15, 16, 17, 18, 19, 20, 21, 22, 23, 24, 25, 26, 27, 28, 29, 30, 31, 32, 33, 34, 35, 36, 37, 38, 39, 40, 41, 42, 43, 44, 45, 46, 47, 48, 49, 50, 51, 52, 53, 54, 55, 56, 57, 58, 59, 60, 61, 62, 63, 64, 65, 66, 67, 68, 69, 70, 71, 72, 73, 74, 75, 76, 77, 78, 79, 80, 81, 82, 83, 84, 85, 86, 87, 88, 89, 90, 91, 92, 93, 94, 95, 96, 97, 98, 99, 100, 101, 102, 103, 104, 105, 106, 107, 108, 109, 110, 111, 112, 113, 114, 115, 116, 117, 118, 119, 120, 121, 122, 123, 124, 125, 126, 127, 128, 129, 130, 131, 132, 133, 134, 135, 136, 137, 138, 139, 140, 141, 142, 143, 144, 145, 146, 147, 148, 149, 150, 151, 152, 153, 154, 155, 156, 157, 158, 159, 160, 161, 162, 163, 164, 165, 166, 167, 168, 169, 170, 171, 172, 173, 174, 175, 176, 177, 178, 179, 180, 181, 182, 183, 184, 185, 186, 187, 188, 189, 190, 191, 192],
      "AcquisitionTime": ["184045.485000", "184046.485000", "184047.485000", "184048.485000", "184049.485000", "184050.485000", "184051.485000", "184052.485000", "184053.485000", "184054.485000", "184055.485000", "184056.485000", "184057.485000", "184058.485000", "184059.485000", "184100.485000", "184101.485000", "184102.485000", "184103.485000", "184104.485000", "184105.485000", "184106.485000", "184107.485000", "184108.485000", "184109.485000", "184110.485000", "184111.485000", "184112.485000", "184113.485000", "184114.485000", "184115.485000", "184116.485000", "184117.485000", "184118.485000", "184119.485000", "184120.485000", "184121.485000", "184122.485000", "184123.485000", "184124.485000", "184125.485000", "184126.485000", "184127.485000", "184128.485000", "184129.485000", "184130.485000", "184131.485000", "184132.485000", "184133.485000", "184134.485000", "184135.485000", "184136.485000", "184137.485000", "184138.485000", "184139.485000", "184140.485000", "184141.485000", "184142.485000", "184143.485000", "184144.485000", "184145.485000", "184146.485000", "184147.485000", "184148.485000", "184149.485000", "184150.485000", "184151.485000", "184152.485000", "184153.485000", "184154.485000", "184155.485000", "184156.485000", "184157.485000", "184158.485000", "184159.485000", "184200.485000", "184201.485000", "184202.485000", "184203.485000", "184204.485000", "184205.485000", "184206.485000", "184207.485000", "184208.485000", "184209.485000", "184210.485000", "184211.485000", "184212.485000", "184213.485000", "184214.485000", "184215.485000", "184216.485000", "184217.485000", "184218.485000", "184219.485000", "184220.485000", "184221.485000", "184222.485000", "184223.485000", "184224.485000", "184225.485000", "184226.485000", "184227.485000", "184228.485000", "184229.485000", "184230.485000", "184231.485000", "184232.485000", "184233.485000", "184234.485000", "184235.485000", "184236.485000", "184237.485000", "184238.485000", "184239.485000", "184240.485000", "184241.485000", "184242.485000", "184243.485000", "184244.485000", "184245.485000", "184246.485000", "184247.485000", "184248.485000", "184249.485000", "184250.485000", "184251.485000", "184252.485000", "184253.485000", "184254.485000", "184255.485000", "184256.485000", "184257.485000", "184258.485000", "184259.485000", "184300.485000", "184301.485000", "184302.485000", "184303.485000", "184304.485000", "184305.485000", "184306.485000", "184307.485000", "184308.485000", "184309.485000", "184310.485000", "184311.485000", "184312.485000", "184313.485000", "184314.485000", "184315.485000", "184316.485000", "184317.485000", "184318.485000", "184319.485000", "184320.485000", "184321.485000", "184322.485000", "184323.485000", "184324.485000", "184325.485000", "184326.485000", "184327.485000", "184328.485000", "184329.485000", "184330.485000", "184331.485000", "184332.485000", "184333.485000", "184334.485000", "184335.485000", "184336.485000", "184337.485000", "184338.485000", "184339.485000", "184340.485000", "184341.485000", "184342.485000", "184343.485000", "184344.485000", "184345.485000", "184346.485000", "184347.485000", "184348.485000", "184349.485000", "184350.485000", "184351.485000", "184352.485000", "184353.485000", "184354.485000", "184355.485000", "184356.485000"],
      "ContentTime": ["184140.824000", "184145.793000", "184145.796000", "184145.799000", "184145.802000", "184145.805000", "184145.808000", "184145.811000", "184150.794000", "184150.797000", "184150.809000", "184150.817000", "184150.820000", "184150.823000", "184150.826000", "184155.794000", "184155.797000", "184155.800000", "184155.808000", "184155.811000", "184155.814000", "184155.817000", "184200.794000", "184200.798000", "184200.801000", "184200.804000", "184200.807000", "184200.810000", "184205.793000", "184205.796000", "184205.799000", "184205.802000", "184205.805000", "184205.808000", "184205.811000", "184205.814000", "184210.794000", "184210.797000", "184210.800000", "184210.803000", "184210.806000", "184210.809000", "184210.812000", "184215.794000", "184215.797000", "184215.803000", "184215.806000", "184215.809000", "184215.812000", "184215.815000", "184220.793000", "184220.796000", "184220.799000", "184220.808000", "184220.811000", "184220.814000", "184220.817000", "184225.794000", "184225.797000", "184225.800000", "184225.803000", "184225.806000", "184225.809000", "184225.812000", "184230.794000", "184230.797000", "184230.800000", "184230.803000", "184230.806000", "184230.809000", "184230.812000", "184235.794000", "184235.797000", "184235.800000", "184235.803000", "184235.806000", "184235.809000", "184235.812000", "184240.793000", "184240.796000", "184240.799000", "184240.802000", "184240.805000", "184240.808000", "184240.811000", "184245.794000", "184245.797000", "184245.800000", "184245.803000", "184245.806000", "184245.809000", "184245.812000", "184250.794000", "184250.797000", "184250.800000", "184250.803000", "184250.806000", "184250.809000", "184250.812000", "184255.793000", "184255.796000", "184255.799000", "184255.802000", "184255.805000", "184255.808000", "184255.811000", "184300.794000", "184300.806000", "184300.809000", "184300.812000", "184300.815000", "184300.818000", "184300.821000", "184305.794000", "184305.797000", "184305.800000", "184305.803000", "184305.806000", "184305.809000", "184305.812000", "184310.794000", "184310.797000", "184310.800000", "184310.803000", "184310.806000", "184310.809000", "184310.812000", "184315.793000", "184315.911000", "184315.914000", "184315.917000", "184315.920000", "184315.923000", "184315.926000", "184315.929000", "184320.809000", "184320.812000", "184320.815000", "184320.818000", "184320.821000", "184320.824000", "184320.827000", "184325.794000", "184325.797000", "184325.800000", "184325.803000", "184325.806000", "184325.809000", "184325.812000", "184330.793000", "184330.796000", "184330.799000", "184330.802000", "184330.805000", "184330.808000", "184330.811000", "184335.794000", "184335.797000", "184335.800000", "184335.803000", "184335.806000", "184335.809000", "184335.812000", "184340.794000", "184340.797000", "184340.800000", "184340.803000", "184340.806000", "184340.809000", "184340.812000", "184345.794000", "184345.797000", "184345.800000", "184345.803000", "184345.806000", "184345.809000", "184345.812000", "184350.793000", "184350.796000", "184350.799000", "184350.802000", "184350.805000", "184350.808000", "184350.811000", "184355.794000", "184355.797000", "184355.800000", "184355.803000", "184355.806000", "184358.176000", "184358.180000", "184358.184000"],
      "InstanceCreationTime": ["184140.824000", "184145.793000", "184145.796000", "184145.799000", "184145.802000", "184145.805000", "184145.808000", "184145.811000", "184150.794000", "184150.797000", "184150.809000", "184150.817000", "184150.820000", "184150.823000", "184150.826000", "184155.794000", "184155.797000", "184155.800000", "184155.808000", "184155.811000", "184155.814000", "184155.817000", "184200.794000", "184200.798000", "184200.801000", "184200.804000", "184200.807000", "184200.810000", "184205.793000", "184205.796000", "184205.799000", "184205.802000", "184205.805000", "184205.808000", "184205.811000", "184205.814000", "184210.794000", "184210.797000", "184210.800000", "184210.803000", "184210.806000", "184210.809000", "184210.812000", "184215.794000", "184215.797000", "184215.803000", "184215.806000", "184215.809000", "184215.812000", "184215.815000", "184220.793000", "184220.796000", "184220.799000", "184220.808000", "184220.811000", "184220.814000", "184220.817000", "184225.794000", "184225.797000", "184225.800000", "184225.803000", "184225.806000", "184225.809000", "184225.812000", "184230.794000", "184230.797000", "184230.800000", "184230.803000", "184230.806000", "184230.809000", "184230.812000", "184235.794000", "184235.797000", "184235.800000", "184235.803000", "184235.806000", "184235.809000", "184235.812000", "184240.793000", "184240.796000", "184240.799000", "184240.802000", "184240.805000", "184240.808000", "184240.811000", "184245.794000", "184245.797000", "184245.800000", "184245.803000", "184245.806000", "184245.809000", "184245.812000", "184250.794000", "184250.797000", "184250.800000", "184250.803000", "184250.806000", "184250.809000", "184250.812000", "184255.793000", "184255.796000", "184255.799000", "184255.802000", "184255.805000", "184255.808000", "184255.811000", "184300.794000", "184300.806000", "184300.809000", "184300.812000", "184300.815000", "184300.818000", "184300.821000", "184305.794000", "184305.797000", "184305.800000", "184305.803000", "184305.806000", "184305.809000", "184305.812000", "184310.794000", "184310.797000", "184310.800000", "184310.803000", "184310.806000", "184310.809000", "184310.812000", "184315.793000", "184315.911000", "184315.914000", "184315.917000", "184315.920000", "184315.923000", "184315.926000", "184315.929000", "184320.809000", "184320.812000", "184320.815000", "184320.818000", "184320.821000", "184320.824000", "184320.827000", "184325.794000", "184325.797000", "184325.800000", "184325.803000", "184325.806000", "184325.809000", "184325.812000", "184330.793000", "184330.796000", "184330.799000", "184330.802000", "184330.805000", "184330.808000", "184330.811000", "184335.794000", "184335.797000", "184335.800000", "184335.803000", "184335.806000", "184335.809000", "184335.812000", "184340.794000", "184340.797000", "184340.800000", "184340.803000", "184340.806000", "184340.809000", "184340.812000", "184345.794000", "184345.797000", "184345.800000", "184345.803000", "184345.806000", "184345.809000", "184345.812000", "184350.793000", "184350.796000", "184350.799000", "184350.802000", "184350.805000", "184350.808000", "184350.811000", "184355.794000", "184355.797000", "184355.800000", "184355.803000", "184355.806000", "184358.176000", "184358.180000", "184358.184000"],
      "InstanceNumber": [1, 2, 3, 4, 5, 6, 7, 8, 9, 10, 11, 12, 13, 14, 15, 16, 17, 18, 19, 20, 21, 22, 23, 24, 25, 26, 27, 28, 29, 30, 31, 32, 33, 34, 35, 36, 37, 38, 39, 40, 41, 42, 43, 44, 45, 46, 47, 48, 49, 50, 51, 52, 53, 54, 55, 56, 57, 58, 59, 60, 61, 62, 63, 64, 65, 66, 67, 68, 69, 70, 71, 72, 73, 74, 75, 76, 77, 78, 79, 80, 81, 82, 83, 84, 85, 86, 87, 88, 89, 90, 91, 92, 93, 94, 95, 96, 97, 98, 99, 100, 101, 102, 103, 104, 105, 106, 107, 108, 109, 110, 111, 112, 113, 114, 115, 116, 117, 118, 119, 120, 121, 122, 123, 124, 125, 126, 127, 128, 129, 130, 131, 132, 133, 134, 135, 136, 137, 138, 139, 140, 141, 142, 143, 144, 145, 146, 147, 148, 149, 150, 151, 152, 153, 154, 155, 156, 157, 158, 159, 160, 161, 162, 163, 164, 165, 166, 167, 168, 169, 170, 171, 172, 173, 174, 175, 176, 177, 178, 179, 180, 181, 182, 183, 184, 185, 186, 187, 188, 189, 190, 191, 192],
      "LargestImagePixelValue": [44005, 42642, 40848, 44296, 43790, 41065, 43488, 43266, 40592, 45084, 44709, 42438, 42113, 44099, 43989, 44041, 43840, 45587, 46073, 42646, 43991, 45152, 44573, 43637, 46464, 45349, 42185, 43339, 45636, 44868, 43917, 43239, 45211, 45652, 44490, 44891, 44442, 44775, 41567, 44320, 45609, 43343, 44971, 44017, 41722, 42969, 44661, 44553, 42988, 44573, 43765, 42146, 43683, 43918, 43493, 42748, 44416, 44037, 43095, 42406, 43961, 44564, 43290, 44145, 44532, 42641, 43156, 44753, 43530, 42599, 45430, 43917, 42071, 39923, 46242, 42326, 43348, 41566, 41472, 38864, 41007, 41084, 39703, 39868, 42078, 41489, 41619, 43689, 42053, 40148, 42801, 41023, 41074, 44532, 42406, 41822, 43283, 41319, 40953, 43715, 42708, 42370, 44663, 42892, 42463, 44694, 43344, 43108, 41730, 42022, 43683, 44029, 42558, 41566, 43322, 42013, 42185, 44333, 42805, 42315, 42919, 41220, 41429, 41996, 42386, 41218, 42318, 42232, 41572, 41538, 42677, 42733, 40552, 42401, 43464, 41800, 41423, 42897, 42183, 40339, 43437, 43228, 42836, 40216, 42543, 42421, 40650, 41659, 43677, 40438, 43602, 43134, 42181, 41598, 40188, 41931, 42566, 40448, 43367, 42903, 41950, 43335, 41344, 41799, 43956, 42524, 42141, 43762, 42342, 40964, 43017, 43389, 42960, 44425, 44380, 42299, 42341, 41516, 42070, 44595, 44005, 43442, 44961, 45157, 41932, 44033, 43987, 42137, 44475, 43975, 41917, 43245],
      "WindowCenter": [9661.0, 9606.0, 9571.0, 9605.0, 9596.0, 9554.0, 9585.0, 9570.0, 9535.0, 9585.0, 9580.0, 9553.0, 9544.0, 9562.0, 9563.0, 9573.0, 9575.0, 9596.0, 9609.0, 9573.0, 9585.0, 9605.0, 9600.0, 9586.0, 9612.0, 9607.0, 9575.0, 9582.0, 9605.0, 9590.0, 9576.0, 9570.0, 9595.0, 9604.0, 9603.0, 9617.0, 9611.0, 9612.0, 9574.0, 9610.0, 9617.0, 9590.0, 9598.0, 9575.0, 9546.0, 9548.0, 9566.0, 9550.0, 9527.0, 9541.0, 9540.0, 9521.0, 9541.0, 9542.0, 9543.0, 9538.0, 9558.0, 9552.0, 9547.0, 9539.0, 9553.0, 9577.0, 9565.0, 9572.0, 9587.0, 9563.0, 9567.0, 9587.0, 9574.0, 9552.0, 9586.0, 9573.0, 9546.0, 9506.0, 9610.0, 9576.0, 9592.0, 9569.0, 9572.0, 9531.0, 9554.0, 9547.0, 9526.0, 9522.0, 9549.0, 9542.0, 9541.0, 9574.0, 9549.0, 9522.0, 9558.0, 9533.0, 9523.0, 9570.0, 9542.0, 9526.0, 9539.0, 9512.0, 9510.0, 9542.0, 9530.0, 9524.0, 9566.0, 9549.0, 9552.0, 9589.0, 9570.0, 9569.0, 9548.0, 9546.0, 9565.0, 9581.0, 9572.0, 9566.0, 9588.0, 9586.0, 9586.0, 9604.0, 9594.0, 9586.0, 9584.0, 9571.0, 9560.0, 9558.0, 9556.0, 9541.0, 9535.0, 9535.0, 9534.0, 9527.0, 9551.0, 9561.0, 9538.0, 9572.0, 9587.0, 9568.0, 9559.0, 9580.0, 9573.0, 9546.0, 9577.0, 9577.0, 9562.0, 9528.0, 9552.0, 9552.0, 9526.0, 9546.0, 9574.0, 9536.0, 9568.0, 9568.0, 9553.0, 9547.0, 9534.0, 9545.0, 9551.0, 9535.0, 9573.0, 9568.0, 9565.0, 9586.0, 9559.0, 9557.0, 9576.0, 9555.0, 9554.0, 9576.0, 9549.0, 9536.0, 9564.0, 9579.0, 9582.0, 9604.0, 9594.0, 9560.0, 9567.0, 9560.0, 9562.0, 9602.0, 9606.0, 9601.0, 9622.0, 9626.0, 9601.0, 9618.0, 9612.0, 9591.0, 9607.0, 9599.0, 9570.0, 9572.0],
      "WindowWidth": [20377.0, 20246.0, 20168.0, 20210.0, 20190.0, 20115.0, 20164.0, 20134.0, 20076.0, 20153.0, 20147.0, 20103.0, 20085.0, 20111.0, 20115.0, 20135.0, 20144.0, 20181.0, 20204.0, 20151.0, 20166.0, 20199.0, 20197.0, 20173.0, 20214.0, 20211.0, 20162.0, 20167.0, 20205.0, 20177.0, 20151.0, 20144.0, 20184.0, 20201.0, 20206.0, 20231.0, 20222.0, 20225.0, 20164.0, 20216.0, 20228.0, 20184.0, 20186.0, 20146.0, 20096.0, 20091.0, 20118.0, 20091.0, 20047.0, 20071.0, 20072.0, 20041.0, 20075.0, 20078.0, 20080.0, 20076.0, 20107.0, 20098.0, 20095.0, 20080.0, 20104.0, 20146.0, 20131.0, 20142.0, 20170.0, 20135.0, 20137.0, 20169.0, 20148.0, 20108.0, 20165.0, 20147.0, 20103.0, 20041.0, 20219.0, 20158.0, 20194.0, 20150.0, 20159.0, 20094.0, 20125.0, 20113.0, 20077.0, 20065.0, 20109.0, 20097.0, 20092.0, 20145.0, 20108.0, 20062.0, 20114.0, 20077.0, 20054.0, 20131.0, 20082.0, 20054.0, 20075.0, 20031.0, 20024.0, 20075.0, 20057.0, 20049.0, 20121.0, 20098.0, 20107.0, 20172.0, 20142.0, 20138.0, 20105.0, 20099.0, 20128.0, 20159.0, 20152.0, 20142.0, 20181.0, 20184.0, 20184.0, 20209.0, 20197.0, 20181.0, 20175.0, 20155.0, 20133.0, 20126.0, 20120.0, 20094.0, 20077.0, 20075.0, 20072.0, 20060.0, 20105.0, 20125.0, 20094.0, 20151.0, 20174.0, 20145.0, 20127.0, 20163.0, 20151.0, 20106.0, 20155.0, 20150.0, 20124.0, 20069.0, 20104.0, 20101.0, 20059.0, 20095.0, 20143.0, 20083.0, 20132.0, 20135.0, 20107.0, 20096.0, 20078.0, 20090.0, 20100.0, 20079.0, 20140.0, 20135.0, 20136.0, 20171.0, 20125.0, 20118.0, 20147.0, 20112.0, 20110.0, 20148.0, 20103.0, 20085.0, 20135.0, 20161.0, 20168.0, 20208.0, 20187.0, 20127.0, 20141.0, 20132.0, 20136.0, 20202.0, 20216.0, 20210.0, 20242.0, 20255.0, 20217.0, 20236.0, 20229.0, 20195.0, 20215.0, 20197.0, 20150.0, 20143.0]
    },
    "slices": {}
  },
  "NumberOfVolumes": 192
}