{
  "AcquisitionMatrixPE": 104,
  "AcquisitionNumber": 1,
  "AcquisitionTime": "18:37:8.462500",
  "BandwidthPerPixelPhaseEncode": 16.578,
  "BaseResolution": 104,
  "BodyPartExamined": "BRAIN",
  "ConsistencyInfo": "N4_VE11C_LATEST_20160120",
  "ConversionSoftware": "dcm2niix",
  "ConversionSoftwareVersion": "v1.0.20190902",
  "DerivedVendorReportedEchoSpacing": 0.000580009,
  "DeviceSerialNumber": "166018",
  "DwellTime": 2.1e-06,
  "EchoTime": 0.037,
  "EchoTrainLength": 104,
  "EffectiveEchoSpacing": 0.000580009,
  "FlipAngle": 68,
  "ImageComments": "Unaliased_MB6_PE3_LB",
  "ImageOrientationPatientDICOM": [0.996577, 0.0590126, -0.0579027, -0.0770323, 0.917103, -0.391138],
  "ImageType": [
    "ORIGINAL",
    "PRIMARY",
    "M",
    "MB",
    "ND",
    "MOSAIC"
],
  "ImagingFrequency": 123.191,
  "InPlanePhaseEncodingDirectionDICOM": "COL",
  "InstitutionAddress": "Washington_Place_6_NYC_NYC_US_10003",
  "InstitutionName": "NYU_Center_for_Brain_Imaging",
  "InstitutionalDepartmentName": "Department",
  "MRAcquisitionType": "2D",
  "MagneticFieldStrength": 3,
  "Manufacturer": "Siemens",
  "ManufacturersModelName": "Prisma",
  "Modality": "MR",
  "MultibandAccelerationFactor": 6,
  "PartialFourier": 1,
  "PatientPosition": "HFS",
  "PercentPhaseFOV": 100,
  "PhaseEncodingDirection": "j",
  "PhaseEncodingSteps": 104,
  "PhaseResolution": 1,
  "PixelBandwidth": 2290,
  "ProcedureStepDescription": "Investigators_Winawer",
  "ProtocolName": "cmrr_mbepi_s6_2mm_66sl_PA_task-prf",
  "PulseSequenceDetails": "%CustomerSeq%_cmrr_mbep2d_bold",
  "ReceiveCoilActiveElements": "HC1-7",
  "ReceiveCoilName": "HeadNeck_64",
  "ReconMatrixPE": 104,
  "RepetitionTime": 1,
  "SAR": 0.0828852,
  "ScanOptions": "FS",
  "ScanningSequence": "EP",
  "SequenceName": "epfid2d1_104",
  "SequenceVariant": "SK_SS",
  "SeriesDescription": "cmrr_mbepi_s6_2mm_66sl_PA_task-prf",
  "SeriesNumber": 14,
  "ShimSetting": [258, -12620, -8443, 128, -29, -268, 128, -7],
  "SliceThickness": 2,
  "SliceTiming": [0, 0.535, 0.09, 0.625, 0.1775, 0.7125, 0.2675, 0.8025, 0.3575, 0.89, 0.445, 0, 0.535, 0.09, 0.625, 0.1775, 0.7125, 0.2675, 0.8025, 0.3575, 0.89, 0.445, 0, 0.535, 0.09, 0.625, 0.1775, 0.7125, 0.2675, 0.8025, 0.3575, 0.89, 0.445, 0, 0.535, 0.09, 0.625, 0.1775, 0.7125, 0.2675, 0.8025, 0.3575, 0.89, 0.445, 0, 0.535, 0.09, 0.625, 0.1775, 0.7125, 0.2675, 0.8025, 0.3575, 0.89, 0.445, 0, 0.535, 0.09, 0.625, 0.1775, 0.7125, 0.2675, 0.8025, 0.3575, 0.89, 0.445],
  "SoftwareVersions": "syngo_MR_E11",
  "SpacingBetweenSlices": 2,
  "StationName": "AWP166018",
  "TaskName": "prf",
  "TotalReadoutTime": 0.0597409,
  "TxRefAmp": 296.745,
  "WipMemBlock": "3c541e7f-98d7-4f03-b6e2-b1b52198130a||Sequence: R016 ve11c/master r/8780670; Nov 27 2017 15:05:12 by eja",
  "dcmmeta_affine": [
    [-1.9931530952453613, -0.1540645807981491, -0.06004129722714424, 114.59999084472656],
    [-0.11802522838115692, 1.8342050313949585, -0.7885187864303589, -41.05567932128906],
    [-0.11580543220043182, 0.7822761535644531, 1.8370174169540405, -90.5193099975586],
    [0.0, 0.0, 0.0, 1.0]
],
  "dcmmeta_reorient_transform": [
    [0.0, -1.0, 0.0, 103.0],
    [1.0, 0.0, 0.0, 0.0],
    [0.0, 0.0, 1.0, 0.0],
    [0.0, 0.0, 0.0, 1.0]
],
  "dcmmeta_shape": [104, 104, 66, 192],
  "dcmmeta_slice_dim": 2,
  "dcmmeta_version": 0.6,
  "global": {
    "const": {
      "AccessionNumber": "juoe4h70",
      "AcquisitionMatrix": [104, 0, 0, 104],
      "AngioFlag": "N",
      "BitsAllocated": 16,
      "BitsStored": 16,
      "BodyPartExamined": "BRAIN",
      "Columns": 936,
      "EchoNumbers": 1,
      "EchoTime": 37.0,
      "EchoTrainLength": 104,
      "FlipAngle": 68.0,
      "HighBit": 15,
      "ImageOrientationPatient": [0.99657653322473, 0.05901261459881, -0.0579027179327, -0.0770322924479, 0.9171025230861, -0.3911380677834],
      "ImagePositionPatient": [-863.79214994481, -959.99523600564, 363.6570643463],
      "ImageType": [
        "ORIGINAL",
        "PRIMARY",
        "M",
        "MB",
        "ND",
        "MOSAIC"
],
      "ImagedNucleus": "1H",
      "ImagingFrequency": 123.1908,
      "InPlanePhaseEncodingDirection": "COL",
      "MRAcquisitionType": "2D",
      "MagneticFieldStrength": 3.0,
      "Manufacturer": "SIEMENS",
      "ManufacturerModelName": "Prisma",
      "Modality": "MR",
      "NumberOfAverages": 1.0,
      "NumberOfPhaseEncodingSteps": 104,
      "PercentPhaseFieldOfView": 100.0,
      "PercentSampling": 100.0,
      "PerformedProcedureStepStartTime": "181438.603000",
      "PhotometricInterpretation": "MONOCHROME2",
      "PixelBandwidth": 2290.0,
      "PixelRepresentation": 0,
      "PixelSpacing": [2.0, 2.0],
      "ProtocolName": "cmrr_mbepi_s6_2mm_66sl_PA_task-prf",
      "RepetitionTime": 1000.0,
      "Rows": 936,
      "SAR": 0.08288520553617,
      "SamplesPerPixel": 1,
      "ScanOptions": "FS",
      "ScanningSequence": "EP",
      "SequenceName": "epfid2d1_104",
      "SequenceVariant": [
        "SK",
        "SS"
],
      "SeriesDescription": "cmrr_mbepi_s6_2mm_66sl_PA_task-prf",
      "SeriesNumber": 14,
      "SeriesTime": "183808.715000",
      "SliceLocation": -70.396556808517,
      "SliceThickness": 2.0,
      "SmallestImagePixelValue": 0,
      "SoftwareVersions": "syngo MR E11",
      "SpacingBetweenSlices": 2.0000000053617,
      "SpecificCharacterSet": "ISO_IR 100",
      "StudyID": "1",
      "StudyTime": "181438.533000",
      "TransmitCoilName": "Body",
      "VariableFlipAngleFlag": "N",
      "WindowCenterWidthExplanation": "Algo1",
      "dBdt": 0.0},
    "slices": {}
  },
  "time": {
    "samples": {
      "AcquisitionNumber": [1, 2, 3, 4, 5, 6, 7, 8, 9, 10, 11, 12, 13, 14, 15, 16, 17, 18, 19, 20, 21, 22, 23, 24, 25, 26, 27, 28, 29, 30, 31, 32, 33, 34, 35, 36, 37, 38, 39, 40, 41, 42, 43, 44, 45, 46, 47, 48, 49, 50, 51, 52, 53, 54, 55, 56, 57, 58, 59, 60, 61, 62, 63, 64, 65, 66, 67, 68, 69, 70, 71, 72, 73, 74, 75, 76, 77, 78, 79, 80, 81, 82, 83, 84, 85, 86, 87, 88, 89, 90, 91, 92, 93, 94, 95, 96, 97, 98, 99, 100, 101, 102, 103, 104, 105, 106, 107, 108, 109, 110, 111, 112, 113, 114, 115, 116, 117, 118, 119, 120, 121, 122, 123, 124, 125, 126, 127, 128, 129, 130, 131, 132, 133, 134, 135, 136, 137, 138, 139, 140, 141, 142, 143, 144, 145, 146, 147, 148, 149, 150, 151, 152, 153, 154, 155, 156, 157, 158, 159, 160, 161, 162, 163, 164, 165, 166, 167, 168, 169, 170, 171, 172, 173, 174, 175, 176, 177, 178, 179, 180, 181, 182, 183, 184, 185, 186, 187, 188, 189, 190, 191, 192],
      "AcquisitionTime": ["183708.462500", "183709.462500", "183710.462500", "183711.462500", "183712.462500", "183713.462500", "183714.462500", "183715.462500", "183716.462500", "183717.462500", "183718.462500", "183719.462500", "183720.462500", "183721.462500", "183722.462500", "183723.462500", "183724.462500", "183725.462500", "183726.462500", "183727.462500", "183728.462500", "183729.462500", "183730.462500", "183731.462500", "183732.462500", "183733.462500", "183734.462500", "183735.462500", "183736.462500", "183737.462500", "183738.462500", "183739.462500", "183740.462500", "183741.462500", "183742.462500", "183743.462500", "183744.462500", "183745.462500", "183746.462500", "183747.462500", "183748.462500", "183749.462500", "183750.462500", "183751.462500", "183752.462500", "183753.462500", "183754.462500", "183755.462500", "183756.462500", "183757.462500", "183758.462500", "183759.462500", "183800.462500", "183801.462500", "183802.462500", "183803.462500", "183804.462500", "183805.462500", "183806.462500", "183807.462500", "183808.462500", "183809.462500", "183810.462500", "183811.462500", "183812.462500", "183813.462500", "183814.462500", "183815.462500", "183816.462500", "183817.462500", "183818.462500", "183819.462500", "183820.462500", "183821.462500", "183822.462500", "183823.462500", "183824.462500", "183825.462500", "183826.462500", "183827.462500", "183828.462500", "183829.462500", "183830.462500", "183831.462500", "183832.462500", "183833.462500", "183834.462500", "183835.462500", "183836.462500", "183837.462500", "183838.462500", "183839.462500", "183840.462500", "183841.462500", "183842.462500", "183843.462500", "183844.462500", "183845.462500", "183846.462500", "183847.462500", "183848.462500", "183849.462500", "183850.462500", "183851.462500", "183852.462500", "183853.462500", "183854.462500", "183855.462500", "183856.462500", "183857.462500", "183858.462500", "183859.462500", "183900.462500", "183901.462500", "183902.462500", "183903.462500", "183904.462500", "183905.462500", "183906.462500", "183907.462500", "183908.462500", "183909.462500", "183910.462500", "183911.462500", "183912.462500", "183913.462500", "183914.462500", "183915.462500", "183916.462500", "183917.462500", "183918.462500", "183919.462500", "183920.462500", "183921.462500", "183922.462500", "183923.462500", "183924.462500", "183925.462500", "183926.462500", "183927.462500", "183928.462500", "183929.462500", "183930.462500", "183931.462500", "183932.462500", "183933.462500", "183934.462500", "183935.462500", "183936.462500", "183937.462500", "183938.462500", "183939.462500", "183940.462500", "183941.462500", "183942.462500", "183943.462500", "183944.462500", "183945.462500", "183946.462500", "183947.462500", "183948.462500", "183949.462500", "183950.462500", "183951.462500", "183952.462500", "183953.462500", "183954.462500", "183955.462500", "183956.462500", "183957.462500", "183958.462500", "183959.462500", "184000.462500", "184001.462500", "184002.462500", "184003.462500", "184004.462500", "184005.462500", "184006.462500", "184007.462500", "184008.462500", "184009.462500", "184010.462500", "184011.462500", "184012.462500", "184013.462500", "184014.462500", "184015.462500", "184016.462500", "184017.462500", "184018.462500", "184019.462500"],
      "ContentTime": ["183808.718000", "183808.722000", "183808.725000", "183808.728000", "183808.731000", "183808.734000", "183813.688000", "183813.691000", "183813.694000", "183813.697000", "183813.700000", "183813.703000", "183813.706000", "183818.688000", "183818.691000", "183818.699000", "183818.702000", "183818.705000", "183818.708000", "183818.711000", "183823.689000", "183823.692000", "183823.695000", "183823.698000", "183823.701000", "183823.704000", "183823.707000", "183828.688000", "183828.691000", "183828.694000", "183828.703000", "183828.706000", "183828.709000", "183828.712000", "183833.688000", "183833.691000", "183833.694000", "183833.697000", "183833.700000", "183833.703000", "183833.706000", "183838.689000", "183838.692000", "183838.695000", "183838.698000", "183838.701000", "183838.704000", "183838.707000", "183838.710000", "183843.688000", "183843.691000", "183843.694000", "183843.697000", "183843.700000", "183843.703000", "183843.706000", "183848.688000", "183848.697000", "183848.700000", "183848.703000", "183848.706000", "183848.709000", "183848.712000", "183853.688000", "183853.691000", "183853.696000", "183853.700000", "183853.703000", "183853.706000", "183853.709000", "183858.689000", "183858.692000", "183858.695000", "183858.698000", "183858.701000", "183858.704000", "183858.707000", "183903.688000", "183903.691000", "183903.694000", "183903.697000", "183903.700000", "183903.703000", "183903.706000", "183908.688000", "183908.691000", "183908.694000", "183908.697000", "183908.700000", "183908.703000", "183908.706000", "183913.689000", "183913.692000", "183913.695000", "183913.698000", "183913.701000", "183913.704000", "183913.707000", "183918.688000", "183918.691000", "183918.694000", "183918.697000", "183918.700000", "183918.703000", "183918.706000", "183923.688000", "183923.691000", "183923.694000", "183923.697000", "183923.700000", "183923.703000", "183923.706000", "183928.688000", "183928.691000", "183928.694000", "183928.697000", "183928.700000", "183928.703000", "183928.706000", "183933.689000", "183933.692000", "183933.695000", "183933.698000", "183933.701000", "183933.704000", "183933.707000", "183938.688000", "183938.691000", "183938.694000", "183938.697000", "183938.700000", "183938.703000", "183938.706000", "183943.688000", "183943.691000", "183943.704000", "183943.707000", "183943.710000", "183943.713000", "183943.716000", "183943.719000", "183948.689000", "183948.692000", "183948.695000", "183948.698000", "183948.701000", "183948.704000", "183948.707000", "183953.688000", "183953.691000", "183953.694000", "183953.697000", "183953.700000", "183953.703000", "183953.706000", "183958.688000", "183958.691000", "183958.694000", "183958.697000", "183958.700000", "183958.703000", "183958.706000", "184003.688000", "184003.691000", "184003.694000", "184003.697000", "184003.700000", "184003.703000", "184003.706000", "184008.689000", "184008.692000", "184008.695000", "184008.698000", "184008.701000", "184008.704000", "184008.707000", "184013.688000", "184013.691000", "184013.694000", "184013.697000", "184013.700000", "184013.703000", "184013.706000", "184018.688000", "184018.691000", "184018.694000", "184018.697000", "184018.700000", "184018.703000", "184021.052000", "184021.055000", "184021.058000"],
      "InstanceCreationTime": ["183808.718000", "183808.722000", "183808.725000", "183808.728000", "183808.731000", "183808.734000", "183813.688000", "183813.691000", "183813.694000", "183813.697000", "183813.700000", "183813.703000", "183813.706000", "183818.688000", "183818.691000", "183818.699000", "183818.702000", "183818.705000", "183818.708000", "183818.711000", "183823.689000", "183823.692000", "183823.695000", "183823.698000", "183823.701000", "183823.704000", "183823.707000", "183828.688000", "183828.691000", "183828.694000", "183828.703000", "183828.706000", "183828.709000", "183828.712000", "183833.688000", "183833.691000", "183833.694000", "183833.697000", "183833.700000", "183833.703000", "183833.706000", "183838.689000", "183838.692000", "183838.695000", "183838.698000", "183838.701000", "183838.704000", "183838.707000", "183838.710000", "183843.688000", "183843.691000", "183843.694000", "183843.697000", "183843.700000", "183843.703000", "183843.706000", "183848.688000", "183848.697000", "183848.700000", "183848.703000", "183848.706000", "183848.709000", "183848.712000", "183853.688000", "183853.691000", "183853.696000", "183853.700000", "183853.703000", "183853.706000", "183853.709000", "183858.689000", "183858.692000", "183858.695000", "183858.698000", "183858.701000", "183858.704000", "183858.707000", "183903.688000", "183903.691000", "183903.694000", "183903.697000", "183903.700000", "183903.703000", "183903.706000", "183908.688000", "183908.691000", "183908.694000", "183908.697000", "183908.700000", "183908.703000", "183908.706000", "183913.689000", "183913.692000", "183913.695000", "183913.698000", "183913.701000", "183913.704000", "183913.707000", "183918.688000", "183918.691000", "183918.694000", "183918.697000", "183918.700000", "183918.703000", "183918.706000", "183923.688000", "183923.691000", "183923.694000", "183923.697000", "183923.700000", "183923.703000", "183923.706000", "183928.688000", "183928.691000", "183928.694000", "183928.697000", "183928.700000", "183928.703000", "183928.706000", "183933.689000", "183933.692000", "183933.695000", "183933.698000", "183933.701000", "183933.704000", "183933.707000", "183938.688000", "183938.691000", "183938.694000", "183938.697000", "183938.700000", "183938.703000", "183938.706000", "183943.688000", "183943.691000", "183943.704000", "183943.707000", "183943.710000", "183943.713000", "183943.716000", "183943.719000", "183948.689000", "183948.692000", "183948.695000", "183948.698000", "183948.701000", "183948.704000", "183948.707000", "183953.688000", "183953.691000", "183953.694000", "183953.697000", "183953.700000", "183953.703000", "183953.706000", "183958.688000", "183958.691000", "183958.694000", "183958.697000", "183958.700000", "183958.703000", "183958.706000", "184003.688000", "184003.691000", "184003.694000", "184003.697000", "184003.700000", "184003.703000", "184003.706000", "184008.689000", "184008.692000", "184008.695000", "184008.698000", "184008.701000", "184008.704000", "184008.707000", "184013.688000", "184013.691000", "184013.694000", "184013.697000", "184013.700000", "184013.703000", "184013.706000", "184018.688000", "184018.691000", "184018.694000", "184018.697000", "184018.700000", "184018.703000", "184021.052000", "184021.055000", "184021.058000"],
      "InstanceNumber": [1, 2, 3, 4, 5, 6, 7, 8, 9, 10, 11, 12, 13, 14, 15, 16, 17, 18, 19, 20, 21, 22, 23, 24, 25, 26, 27, 28, 29, 30, 31, 32, 33, 34, 35, 36, 37, 38, 39, 40, 41, 42, 43, 44, 45, 46, 47, 48, 49, 50, 51, 52, 53, 54, 55, 56, 57, 58, 59, 60, 61, 62, 63, 64, 65, 66, 67, 68, 69, 70, 71, 72, 73, 74, 75, 76, 77, 78, 79, 80, 81, 82, 83, 84, 85, 86, 87, 88, 89, 90, 91, 92, 93, 94, 95, 96, 97, 98, 99, 100, 101, 102, 103, 104, 105, 106, 107, 108, 109, 110, 111, 112, 113, 114, 115, 116, 117, 118, 119, 120, 121, 122, 123, 124, 125, 126, 127, 128, 129, 130, 131, 132, 133, 134, 135, 136, 137, 138, 139, 140, 141, 142, 143, 144, 145, 146, 147, 148, 149, 150, 151, 152, 153, 154, 155, 156, 157, 158, 159, 160, 161, 162, 163, 164, 165, 166, 167, 168, 169, 170, 171, 172, 173, 174, 175, 176, 177, 178, 179, 180, 181, 182, 183, 184, 185, 186, 187, 188, 189, 190, 191, 192],
      "LargestImagePixelValue": [44666, 42855, 42396, 42185, 41329, 42677, 43710, 42505, 41250, 44590, 44332, 42063, 43691, 44592, 44213, 42534, 44799, 44389, 43230, 43838, 44561, 44139, 43297, 44778, 44484, 41764, 42684, 45098, 44533, 42773, 45857, 44891, 42418, 45017, 44035, 42757, 43546, 45021, 44371, 44935, 45194, 43966, 43281, 44839, 44339, 42887, 43794, 45793, 44745, 43615, 45444, 43716, 42559, 44358, 43440, 42353, 44696, 45236, 42801, 43074, 45028, 43603, 41453, 44291, 43427, 42287, 44560, 44462, 44304, 42937, 44788, 44917, 42743, 45638, 44530, 43808, 42576, 44320, 44435, 43236, 45319, 44327, 43874, 45515, 44412, 42218, 44882, 45769, 42862, 44002, 44166, 42520, 43084, 44425, 43620, 44172, 44901, 43972, 43477, 45032, 44713, 43396, 44698, 45126, 44585, 43303, 45098, 44854, 42574, 42814, 43819, 43953, 41945, 44196, 43695, 41779, 43659, 43313, 42387, 44677, 43894, 41427, 42825, 43882, 42226, 42068, 45016, 44396, 42238, 42293, 43994, 42734, 41426, 42822, 43643, 42289, 41819, 42405, 41612, 40935, 43643, 41224, 42248, 41834, 40217, 42273, 42763, 41744, 41571, 42465, 40592, 41497, 41842, 41169, 41041, 43099, 41934, 39900, 42214, 43053, 42561, 42124, 44278, 43281, 41218, 42581, 42380, 41036, 43620, 42808, 40609, 43132, 42602, 41102, 43738, 43002, 41517, 43381, 43831, 42082, 44755, 43211, 43136, 42286, 43672, 43435, 41534, 42308, 44167, 43514, 42741, 44373],
      "WindowCenter": [9656.0, 9600.0, 9573.0, 9561.0, 9544.0, 9555.0, 9557.0, 9541.0, 9530.0, 9560.0, 9558.0, 9525.0, 9552.0, 9566.0, 9564.0, 9549.0, 9576.0, 9579.0, 9568.0, 9575.0, 9582.0, 9582.0, 9562.0, 9580.0, 9572.0, 9539.0, 9545.0, 9576.0, 9578.0, 9570.0, 9604.0, 9592.0, 9566.0, 9597.0, 9576.0, 9563.0, 9568.0, 9586.0, 9581.0, 9587.0, 9589.0, 9569.0, 9553.0, 9561.0, 9553.0, 9540.0, 9546.0, 9573.0, 9561.0, 9560.0, 9585.0, 9567.0, 9556.0, 9573.0, 9557.0, 9536.0, 9567.0, 9559.0, 9535.0, 9542.0, 9560.0, 9548.0, 9528.0, 9562.0, 9550.0, 9536.0, 9560.0, 9553.0, 9553.0, 9540.0, 9559.0, 9561.0, 9543.0, 9583.0, 9572.0, 9557.0, 9546.0, 9571.0, 9571.0, 9563.0, 9595.0, 9576.0, 9578.0, 9589.0, 9573.0, 9546.0, 9569.0, 9575.0, 9544.0, 9563.0, 9554.0, 9535.0, 9538.0, 9544.0, 9538.0, 9545.0, 9550.0, 9538.0, 9539.0, 9557.0, 9551.0, 9532.0, 9550.0, 9551.0, 9555.0, 9550.0, 9578.0, 9580.0, 9555.0, 9555.0, 9569.0, 9577.0, 9551.0, 9587.0, 9585.0, 9551.0, 9578.0, 9572.0, 9556.0, 9583.0, 9561.0, 9523.0, 9541.0, 9546.0, 9526.0, 9528.0, 9568.0, 9554.0, 9536.0, 9537.0, 9555.0, 9545.0, 9535.0, 9561.0, 9570.0, 9569.0, 9569.0, 9575.0, 9563.0, 9557.0, 9581.0, 9547.0, 9558.0, 9549.0, 9513.0, 9536.0, 9532.0, 9520.0, 9519.0, 9524.0, 9496.0, 9509.0, 9507.0, 9500.0, 9502.0, 9530.0, 9519.0, 9501.0, 9534.0, 9540.0, 9542.0, 9545.0, 9572.0, 9561.0, 9545.0, 9565.0, 9561.0, 9556.0, 9582.0, 9578.0, 9557.0, 9581.0, 9575.0, 9548.0, 9578.0, 9555.0, 9541.0, 9559.0, 9568.0, 9550.0, 9580.0, 9562.0, 9562.0, 9549.0, 9559.0, 9551.0, 9521.0, 9519.0, 9545.0, 9547.0, 9544.0, 9565.0],
      "WindowWidth": [20362.0, 20228.0, 20162.0, 20131.0, 20097.0, 20110.0, 20107.0, 20076.0, 20059.0, 20106.0, 20099.0, 20049.0, 20093.0, 20119.0, 20121.0, 20097.0, 20137.0, 20147.0, 20133.0, 20142.0, 20156.0, 20159.0, 20122.0, 20151.0, 20139.0, 20084.0, 20094.0, 20143.0, 20150.0, 20144.0, 20199.0, 20179.0, 20140.0, 20185.0, 20149.0, 20128.0, 20134.0, 20161.0, 20155.0, 20164.0, 20166.0, 20136.0, 20105.0, 20112.0, 20099.0, 20079.0, 20087.0, 20134.0, 20117.0, 20119.0, 20160.0, 20136.0, 20120.0, 20142.0, 20111.0, 20074.0, 20122.0, 20104.0, 20069.0, 20082.0, 20109.0, 20092.0, 20061.0, 20116.0, 20100.0, 20077.0, 20111.0, 20100.0, 20101.0, 20077.0, 20110.0, 20118.0, 20089.0, 20158.0, 20139.0, 20114.0, 20096.0, 20137.0, 20137.0, 20129.0, 20180.0, 20153.0, 20157.0, 20172.0, 20142.0, 20096.0, 20129.0, 20139.0, 20092.0, 20120.0, 20104.0, 20072.0, 20073.0, 20078.0, 20071.0, 20081.0, 20091.0, 20074.0, 20077.0, 20104.0, 20095.0, 20063.0, 20091.0, 20095.0, 20108.0, 20103.0, 20150.0, 20158.0, 20118.0, 20117.0, 20142.0, 20158.0, 20114.0, 20175.0, 20173.0, 20111.0, 20156.0, 20145.0, 20118.0, 20164.0, 20123.0, 20055.0, 20080.0, 20085.0, 20055.0, 20062.0, 20128.0, 20105.0, 20078.0, 20081.0, 20109.0, 20097.0, 20084.0, 20126.0, 20142.0, 20149.0, 20148.0, 20155.0, 20140.0, 20129.0, 20164.0, 20106.0, 20122.0, 20105.0, 20040.0, 20072.0, 20059.0, 20041.0, 20039.0, 20047.0, 19999.0, 20018.0, 20012.0, 19998.0, 20005.0, 20051.0, 20038.0, 20012.0, 20067.0, 20074.0, 20083.0, 20091.0, 20136.0, 20122.0, 20100.0, 20130.0, 20130.0, 20126.0, 20169.0, 20165.0, 20130.0, 20164.0, 20156.0, 20110.0, 20154.0, 20113.0, 20087.0, 20114.0, 20132.0, 20104.0, 20149.0, 20120.0, 20121.0, 20099.0, 20110.0, 20096.0, 20044.0, 20037.0, 20080.0, 20086.0, 20085.0, 20122.0]
    },
    "slices": {}
  },
  "NumberOfVolumes": 192
}