{
  "aor": 0.0005119473684210526,
  "aqi": 0.008480371894736842,
  "bids_meta": {
    "AcquisitionMatrixPE": 104,
    "AcquisitionNumber": 1,
    "AcquisitionTime": "11:39:46.475000",
    "BandwidthPerPixelPhaseEncode": 16.578,
    "BaseResolution": 104,
    "BodyPartExamined": "BRAIN",
    "CogAtlasID": "TODO",
    "ConsistencyInfo": "N4_VE11C_LATEST_20160120",
    "ConversionSoftware": "dcm2niix",
    "ConversionSoftwareVersion": "v1.0.20190902",
    "DerivedVendorReportedEchoSpacing": 0.000580009,
    "DeviceSerialNumber": "166018",
    "DwellTime": 2.1e-06,
    "EchoTime": 0.037,
    "EchoTrainLength": 104,
    "EffectiveEchoSpacing": 0.000580009,
    "FlipAngle": 68,
    "ImageComments": "Unaliased_MB6_PE3_LB",
    "ImageOrientationPatientDICOM": [
      0.994698,
      -0.0553282,
      0.0866878,
      0.0641499,
      0.99266,
      -0.102526
    ],
    "ImageType": [
      "ORIGINAL",
      "PRIMARY",
      "M",
      "MB",
      "ND",
      "MOSAIC"
    ],
    "ImagingFrequency": 123.187,
    "InPlanePhaseEncodingDirectionDICOM": "COL",
    "InstitutionAddress": "Washington_Place_6_NYC_NYC_US_10003",
    "InstitutionName": "NYU_Center_for_Brain_Imaging",
    "InstitutionalDepartmentName": "Department",
    "MRAcquisitionType": "2D",
    "MagneticFieldStrength": 3,
    "Manufacturer": "Siemens",
    "ManufacturersModelName": "Prisma",
    "Modality": "MR",
    "MultibandAccelerationFactor": 6,
    "NumberOfVolumes": 192,
    "PartialFourier": 1,
    "PatientPosition": "HFS",
    "PercentPhaseFOV": 100,
    "PhaseEncodingDirection": "j",
    "PhaseEncodingSteps": 104,
    "PhaseResolution": 1,
    "PixelBandwidth": 2290,
    "ProcedureStepDescription": "Investigators_Winawer",
    "ProtocolName": "cmrr_mbepi_s6_2mm_66sl_PA_TR1.0",
    "PulseSequenceDetails": "%CustomerSeq%_cmrr_mbep2d_bold",
    "ReceiveCoilActiveElements": "HC1-7",
    "ReceiveCoilName": "HeadNeck_64",
    "ReconMatrixPE": 104,
    "RepetitionTime": 1,
    "SAR": 0.0783302,
    "ScanOptions": "FS",
    "ScanningSequence": "EP",
    "SequenceName": "epfid2d1_104",
    "SequenceVariant": "SK_SS",
    "SeriesDescription": "cmrr_mbepi_s6_2mm_66sl_PA_TR1.0",
    "SeriesNumber": 16,
    "ShimSetting": [
      289,
      -12569,
      -8490,
      291,
      -7,
      19,
      -115,
      -20
    ],
    "SliceThickness": 2,
    "SliceTiming": [
      0,
      0.535,
      0.09,
      0.625,
      0.1775,
      0.7125,
      0.2675,
      0.8025,
      0.3575,
      0.89,
      0.445,
      0,
      0.535,
      0.09,
      0.625,
      0.1775,
      0.7125,
      0.2675,
      0.8025,
      0.3575,
      0.89,
      0.445,
      0,
      0.535,
      0.09,
      0.625,
      0.1775,
      0.7125,
      0.2675,
      0.8025,
      0.3575,
      0.89,
      0.445,
      0,
      0.535,
      0.09,
      0.625,
      0.1775,
      0.7125,
      0.2675,
      0.8025,
      0.3575,
      0.89,
      0.445,
      0,
      0.535,
      0.09,
      0.625,
      0.1775,
      0.7125,
      0.2675,
      0.8025,
      0.3575,
      0.89,
      0.445,
      0,
      0.535,
      0.09,
      0.625,
      0.1775,
      0.7125,
      0.2675,
      0.8025,
      0.3575,
      0.89,
      0.445
    ],
    "SoftwareVersions": "syngo_MR_E11",
    "SpacingBetweenSlices": 2,
    "StationName": "AWP166018",
    "TaskName": "prf",
    "TotalReadoutTime": 0.0597409,
    "TxRefAmp": 208.721,
    "WipMemBlock": "a466239c-b909-428d-8fb1-260c82f4a55c||Sequence: ve11c/master r/ab69a6c; Apr 19 2017 09:47:47 by eja",
    "acq_id": "PA",
    "dataset": "unknown",
    "dcmmeta_affine": [
      [
        -1.9893958568572998,
        0.12829983234405518,
        0.16075778007507324,
        101.37809753417969
      ],
      [
        0.11065631359815598,
        1.9853192567825317,
        -0.21508699655532837,
        -65.62957763671875
      ],
      [
        0.17337557673454285,
        0.20505216717720032,
        1.9818916320800781,
        -67.0409164428711
      ],
      [
        0.0,
        0.0,
        0.0,
        1.0
      ]
    ],
    "dcmmeta_reorient_transform": [
      [
        0.0,
        -1.0,
        0.0,
        103.0
      ],
      [
        1.0,
        0.0,
        0.0,
        0.0
      ],
      [
        0.0,
        0.0,
        1.0,
        0.0
      ],
      [
        0.0,
        0.0,
        0.0,
        1.0
      ]
    ],
    "dcmmeta_shape": [
      104,
      104,
      66,
      192
    ],
    "dcmmeta_slice_dim": 2,
    "dcmmeta_version": 0.6,
    "global": {
      "const": {
        "AccessionNumber": "j66ik478",
        "AcquisitionMatrix": [
          104,
          0,
          0,
          104
        ],
        "AngioFlag": "N",
        "BitsAllocated": 16,
        "BitsStored": 16,
        "BodyPartExamined": "BRAIN",
        "Columns": 936,
        "EchoNumbers": 1,
        "EchoTime": 37.0,
        "EchoTrainLength": 104,
        "FlipAngle": 68.0,
        "HighBit": 15,
        "ImageOrientationPatient": [
          0.99469795526587,
          -0.0553281562539,
          0.08668778988672,
          0.06414991394605,
          0.99265965485144,
          -0.1025260853195
        ],
        "ImagePositionPatient": [
          -995.55441012872,
          -918.71811429132,
          -32.743077795519
        ],
        "ImageType": [
          "ORIGINAL",
          "PRIMARY",
          "M",
          "MB",
          "ND",
          "MOSAIC"
        ],
        "ImagedNucleus": "1H",
        "ImagingFrequency": 123.187278,
        "InPlanePhaseEncodingDirection": "COL",
        "MRAcquisitionType": "2D",
        "MagneticFieldStrength": 3.0,
        "Manufacturer": "SIEMENS",
        "ManufacturerModelName": "Prisma",
        "Modality": "MR",
        "NumberOfAverages": 1.0,
        "NumberOfPhaseEncodingSteps": 104,
        "PercentPhaseFieldOfView": 100.0,
        "PercentSampling": 100.0,
        "PerformedProcedureStepStartTime": "111750.314000",
        "PhotometricInterpretation": "MONOCHROME2",
        "PixelBandwidth": 2290.0,
        "PixelRepresentation": 0,
        "PixelSpacing": [
          2.0,
          2.0
        ],
        "ProtocolName": "cmrr_mbepi_s6_2mm_66sl_PA_TR1.0",
        "RepetitionTime": 1000.0,
        "Rows": 936,
        "SAR": 0.07833016078607,
        "SamplesPerPixel": 1,
        "ScanOptions": "FS",
        "ScanningSequence": "EP",
        "SequenceName": "epfid2d1_104",
        "SequenceVariant": [
          "SK",
          "SS"
        ],
        "SeriesDescription": "cmrr_mbepi_s6_2mm_66sl_PA_TR1.0",
        "SeriesNumber": 16,
        "SeriesTime": "114112.109000",
        "SliceLocation": -51.227218599238,
        "SliceThickness": 2.0,
        "SmallestImagePixelValue": 0,
        "SoftwareVersions": "syngo MR E11",
        "SpacingBetweenSlices": 1.9999999826765,
        "SpecificCharacterSet": "ISO_IR 100",
        "StudyID": "2",
        "StudyTime": "111750.025000",
        "TransmitCoilName": "Body",
        "VariableFlipAngleFlag": "N",
        "WindowCenterWidthExplanation": "Algo1",
        "dBdt": 0.0
      },
      "slices": {}
    },
    "modality": "bold",
    "run_id": 5,
    "session_id": "nyu3t01",
    "subject_id": "wlsubj014",
    "task_id": "prf",
    "time": {
      "samples": {
        "AcquisitionNumber": [
          1,
          2,
          3,
          4,
          5,
          6,
          7,
          8,
          9,
          10,
          11,
          12,
          13,
          14,
          15,
          16,
          17,
          18,
          19,
          20,
          21,
          22,
          23,
          24,
          25,
          26,
          27,
          28,
          29,
          30,
          31,
          32,
          33,
          34,
          35,
          36,
          37,
          38,
          39,
          40,
          41,
          42,
          43,
          44,
          45,
          46,
          47,
          48,
          49,
          50,
          51,
          52,
          53,
          54,
          55,
          56,
          57,
          58,
          59,
          60,
          61,
          62,
          63,
          64,
          65,
          66,
          67,
          68,
          69,
          70,
          71,
          72,
          73,
          74,
          75,
          76,
          77,
          78,
          79,
          80,
          81,
          82,
          83,
          84,
          85,
          86,
          87,
          88,
          89,
          90,
          91,
          92,
          93,
          94,
          95,
          96,
          97,
          98,
          99,
          100,
          101,
          102,
          103,
          104,
          105,
          106,
          107,
          108,
          109,
          110,
          111,
          112,
          113,
          114,
          115,
          116,
          117,
          118,
          119,
          120,
          121,
          122,
          123,
          124,
          125,
          126,
          127,
          128,
          129,
          130,
          131,
          132,
          133,
          134,
          135,
          136,
          137,
          138,
          139,
          140,
          141,
          142,
          143,
          144,
          145,
          146,
          147,
          148,
          149,
          150,
          151,
          152,
          153,
          154,
          155,
          156,
          157,
          158,
          159,
          160,
          161,
          162,
          163,
          164,
          165,
          166,
          167,
          168,
          169,
          170,
          171,
          172,
          173,
          174,
          175,
          176,
          177,
          178,
          179,
          180,
          181,
          182,
          183,
          184,
          185,
          186,
          187,
          188,
          189,
          190,
          191,
          192
        ],
        "AcquisitionTime": [
          "113946.475000",
          "113947.475000",
          "113948.475000",
          "113949.475000",
          "113950.475000",
          "113951.475000",
          "113952.475000",
          "113953.475000",
          "113954.475000",
          "113955.475000",
          "113956.475000",
          "113957.475000",
          "113958.475000",
          "113959.475000",
          "114000.475000",
          "114001.475000",
          "114002.475000",
          "114003.475000",
          "114004.475000",
          "114005.475000",
          "114006.475000",
          "114007.475000",
          "114008.475000",
          "114009.475000",
          "114010.475000",
          "114011.475000",
          "114012.475000",
          "114013.475000",
          "114014.475000",
          "114015.475000",
          "114016.475000",
          "114017.475000",
          "114018.475000",
          "114019.475000",
          "114020.475000",
          "114021.475000",
          "114022.475000",
          "114023.475000",
          "114024.475000",
          "114025.475000",
          "114026.475000",
          "114027.475000",
          "114028.475000",
          "114029.475000",
          "114030.475000",
          "114031.475000",
          "114032.475000",
          "114033.475000",
          "114034.475000",
          "114035.475000",
          "114036.475000",
          "114037.475000",
          "114038.475000",
          "114039.475000",
          "114040.475000",
          "114041.475000",
          "114042.475000",
          "114043.475000",
          "114044.475000",
          "114045.475000",
          "114046.475000",
          "114047.475000",
          "114048.475000",
          "114049.475000",
          "114050.475000",
          "114051.475000",
          "114052.475000",
          "114053.475000",
          "114054.475000",
          "114055.475000",
          "114056.475000",
          "114057.475000",
          "114058.475000",
          "114059.475000",
          "114100.475000",
          "114101.475000",
          "114102.475000",
          "114103.475000",
          "114104.475000",
          "114105.475000",
          "114106.475000",
          "114107.475000",
          "114108.475000",
          "114109.475000",
          "114110.475000",
          "114111.475000",
          "114112.475000",
          "114113.475000",
          "114114.475000",
          "114115.475000",
          "114116.475000",
          "114117.475000",
          "114118.475000",
          "114119.475000",
          "114120.475000",
          "114121.475000",
          "114122.475000",
          "114123.475000",
          "114124.475000",
          "114125.475000",
          "114126.475000",
          "114127.475000",
          "114128.475000",
          "114129.475000",
          "114130.475000",
          "114131.475000",
          "114132.475000",
          "114133.475000",
          "114134.475000",
          "114135.475000",
          "114136.475000",
          "114137.475000",
          "114138.475000",
          "114139.475000",
          "114140.475000",
          "114141.475000",
          "114142.475000",
          "114143.475000",
          "114144.475000",
          "114145.475000",
          "114146.475000",
          "114147.475000",
          "114148.475000",
          "114149.475000",
          "114150.475000",
          "114151.475000",
          "114152.475000",
          "114153.475000",
          "114154.475000",
          "114155.475000",
          "114156.475000",
          "114157.475000",
          "114158.475000",
          "114159.475000",
          "114200.475000",
          "114201.475000",
          "114202.475000",
          "114203.475000",
          "114204.475000",
          "114205.475000",
          "114206.475000",
          "114207.475000",
          "114208.475000",
          "114209.475000",
          "114210.475000",
          "114211.475000",
          "114212.475000",
          "114213.475000",
          "114214.475000",
          "114215.475000",
          "114216.475000",
          "114217.475000",
          "114218.475000",
          "114219.475000",
          "114220.475000",
          "114221.475000",
          "114222.475000",
          "114223.475000",
          "114224.475000",
          "114225.475000",
          "114226.475000",
          "114227.475000",
          "114228.475000",
          "114229.475000",
          "114230.475000",
          "114231.475000",
          "114232.475000",
          "114233.475000",
          "114234.475000",
          "114235.475000",
          "114236.475000",
          "114237.475000",
          "114238.475000",
          "114239.475000",
          "114240.475000",
          "114241.475000",
          "114242.475000",
          "114243.475000",
          "114244.475000",
          "114245.475000",
          "114246.475000",
          "114247.475000",
          "114248.475000",
          "114249.475000",
          "114250.475000",
          "114251.475000",
          "114252.475000",
          "114253.475000",
          "114254.475000",
          "114255.475000",
          "114256.475000",
          "114257.475000"
        ],
        "ContentTime": [
          "114112.112000",
          "114112.116000",
          "114112.120000",
          "114112.123000",
          "114112.126000",
          "114112.129000",
          "114112.132000",
          "114112.135000",
          "114112.138000",
          "114112.141000",
          "114112.144000",
          "114112.148000",
          "114112.157000",
          "114112.177000",
          "114112.181000",
          "114112.184000",
          "114112.187000",
          "114112.189000",
          "114112.198000",
          "114112.201000",
          "114112.207000",
          "114112.211000",
          "114112.214000",
          "114112.217000",
          "114112.221000",
          "114112.224000",
          "114112.227000",
          "114112.230000",
          "114112.233000",
          "114112.236000",
          "114112.239000",
          "114112.242000",
          "114112.245000",
          "114112.248000",
          "114112.251000",
          "114112.254000",
          "114112.257000",
          "114112.260000",
          "114112.263000",
          "114112.266000",
          "114112.269000",
          "114132.078000",
          "114132.081000",
          "114132.084000",
          "114132.087000",
          "114132.091000",
          "114132.094000",
          "114132.097000",
          "114132.100000",
          "114132.103000",
          "114132.106000",
          "114132.109000",
          "114132.112000",
          "114132.115000",
          "114132.118000",
          "114132.121000",
          "114132.124000",
          "114132.128000",
          "114132.131000",
          "114132.134000",
          "114132.137000",
          "114132.140000",
          "114132.143000",
          "114132.146000",
          "114132.149000",
          "114132.152000",
          "114132.155000",
          "114132.158000",
          "114132.191000",
          "114152.078000",
          "114152.081000",
          "114152.085000",
          "114152.088000",
          "114152.091000",
          "114152.094000",
          "114152.102000",
          "114152.105000",
          "114152.108000",
          "114152.111000",
          "114152.114000",
          "114152.118000",
          "114152.121000",
          "114152.124000",
          "114152.127000",
          "114152.130000",
          "114152.133000",
          "114152.149000",
          "114152.161000",
          "114152.164000",
          "114152.167000",
          "114152.170000",
          "114152.173000",
          "114152.176000",
          "114152.179000",
          "114152.182000",
          "114152.185000",
          "114152.188000",
          "114152.191000",
          "114212.078000",
          "114212.081000",
          "114212.084000",
          "114212.087000",
          "114212.090000",
          "114212.094000",
          "114212.097000",
          "114212.100000",
          "114212.103000",
          "114212.106000",
          "114212.109000",
          "114212.112000",
          "114212.115000",
          "114212.118000",
          "114212.127000",
          "114212.130000",
          "114212.133000",
          "114212.136000",
          "114212.139000",
          "114212.142000",
          "114212.145000",
          "114212.148000",
          "114212.151000",
          "114212.154000",
          "114212.157000",
          "114212.161000",
          "114212.164000",
          "114212.167000",
          "114232.078000",
          "114232.081000",
          "114232.084000",
          "114232.087000",
          "114232.090000",
          "114232.094000",
          "114232.097000",
          "114232.100000",
          "114232.103000",
          "114232.106000",
          "114232.109000",
          "114232.112000",
          "114232.115000",
          "114232.118000",
          "114232.121000",
          "114232.124000",
          "114232.127000",
          "114232.130000",
          "114232.133000",
          "114232.136000",
          "114232.139000",
          "114232.143000",
          "114232.146000",
          "114232.149000",
          "114232.152000",
          "114232.155000",
          "114232.158000",
          "114232.161000",
          "114252.078000",
          "114252.081000",
          "114252.084000",
          "114252.088000",
          "114252.091000",
          "114252.094000",
          "114252.097000",
          "114252.100000",
          "114252.103000",
          "114252.106000",
          "114252.109000",
          "114252.112000",
          "114252.121000",
          "114252.125000",
          "114252.128000",
          "114252.131000",
          "114252.134000",
          "114252.137000",
          "114252.140000",
          "114252.143000",
          "114252.146000",
          "114252.150000",
          "114252.153000",
          "114252.156000",
          "114252.159000",
          "114252.162000",
          "114252.165000",
          "114252.168000",
          "114259.273000",
          "114259.276000",
          "114259.280000",
          "114259.283000",
          "114259.286000",
          "114259.289000",
          "114259.292000",
          "114259.295000",
          "114259.298000",
          "114259.302000"
        ],
        "InstanceCreationTime": [
          "114112.112000",
          "114112.116000",
          "114112.120000",
          "114112.123000",
          "114112.126000",
          "114112.129000",
          "114112.132000",
          "114112.135000",
          "114112.138000",
          "114112.141000",
          "114112.144000",
          "114112.148000",
          "114112.157000",
          "114112.177000",
          "114112.181000",
          "114112.184000",
          "114112.187000",
          "114112.189000",
          "114112.198000",
          "114112.201000",
          "114112.207000",
          "114112.211000",
          "114112.214000",
          "114112.217000",
          "114112.221000",
          "114112.224000",
          "114112.227000",
          "114112.230000",
          "114112.233000",
          "114112.236000",
          "114112.239000",
          "114112.242000",
          "114112.245000",
          "114112.248000",
          "114112.251000",
          "114112.254000",
          "114112.257000",
          "114112.260000",
          "114112.263000",
          "114112.266000",
          "114112.269000",
          "114132.078000",
          "114132.081000",
          "114132.084000",
          "114132.087000",
          "114132.091000",
          "114132.094000",
          "114132.097000",
          "114132.100000",
          "114132.103000",
          "114132.106000",
          "114132.109000",
          "114132.112000",
          "114132.115000",
          "114132.118000",
          "114132.121000",
          "114132.124000",
          "114132.128000",
          "114132.131000",
          "114132.134000",
          "114132.137000",
          "114132.140000",
          "114132.143000",
          "114132.146000",
          "114132.149000",
          "114132.152000",
          "114132.155000",
          "114132.158000",
          "114132.191000",
          "114152.078000",
          "114152.081000",
          "114152.085000",
          "114152.088000",
          "114152.091000",
          "114152.094000",
          "114152.102000",
          "114152.105000",
          "114152.108000",
          "114152.111000",
          "114152.114000",
          "114152.118000",
          "114152.121000",
          "114152.124000",
          "114152.127000",
          "114152.130000",
          "114152.133000",
          "114152.149000",
          "114152.161000",
          "114152.164000",
          "114152.167000",
          "114152.170000",
          "114152.173000",
          "114152.176000",
          "114152.179000",
          "114152.182000",
          "114152.185000",
          "114152.188000",
          "114152.191000",
          "114212.078000",
          "114212.081000",
          "114212.084000",
          "114212.087000",
          "114212.090000",
          "114212.094000",
          "114212.097000",
          "114212.100000",
          "114212.103000",
          "114212.106000",
          "114212.109000",
          "114212.112000",
          "114212.115000",
          "114212.118000",
          "114212.127000",
          "114212.130000",
          "114212.133000",
          "114212.136000",
          "114212.139000",
          "114212.142000",
          "114212.145000",
          "114212.148000",
          "114212.151000",
          "114212.154000",
          "114212.157000",
          "114212.161000",
          "114212.164000",
          "114212.167000",
          "114232.078000",
          "114232.081000",
          "114232.084000",
          "114232.087000",
          "114232.090000",
          "114232.094000",
          "114232.097000",
          "114232.100000",
          "114232.103000",
          "114232.106000",
          "114232.109000",
          "114232.112000",
          "114232.115000",
          "114232.118000",
          "114232.121000",
          "114232.124000",
          "114232.127000",
          "114232.130000",
          "114232.133000",
          "114232.136000",
          "114232.139000",
          "114232.143000",
          "114232.146000",
          "114232.149000",
          "114232.152000",
          "114232.155000",
          "114232.158000",
          "114232.161000",
          "114252.078000",
          "114252.081000",
          "114252.084000",
          "114252.088000",
          "114252.091000",
          "114252.094000",
          "114252.097000",
          "114252.100000",
          "114252.103000",
          "114252.106000",
          "114252.109000",
          "114252.112000",
          "114252.121000",
          "114252.125000",
          "114252.128000",
          "114252.131000",
          "114252.134000",
          "114252.137000",
          "114252.140000",
          "114252.143000",
          "114252.146000",
          "114252.150000",
          "114252.153000",
          "114252.156000",
          "114252.159000",
          "114252.162000",
          "114252.165000",
          "114252.168000",
          "114259.273000",
          "114259.276000",
          "114259.280000",
          "114259.283000",
          "114259.286000",
          "114259.289000",
          "114259.292000",
          "114259.295000",
          "114259.298000",
          "114259.302000"
        ],
        "InstanceNumber": [
          1,
          2,
          3,
          4,
          5,
          6,
          7,
          8,
          9,
          10,
          11,
          12,
          13,
          14,
          15,
          16,
          17,
          18,
          19,
          20,
          21,
          22,
          23,
          24,
          25,
          26,
          27,
          28,
          29,
          30,
          31,
          32,
          33,
          34,
          35,
          36,
          37,
          38,
          39,
          40,
          41,
          42,
          43,
          44,
          45,
          46,
          47,
          48,
          49,
          50,
          51,
          52,
          53,
          54,
          55,
          56,
          57,
          58,
          59,
          60,
          61,
          62,
          63,
          64,
          65,
          66,
          67,
          68,
          69,
          70,
          71,
          72,
          73,
          74,
          75,
          76,
          77,
          78,
          79,
          80,
          81,
          82,
          83,
          84,
          85,
          86,
          87,
          88,
          89,
          90,
          91,
          92,
          93,
          94,
          95,
          96,
          97,
          98,
          99,
          100,
          101,
          102,
          103,
          104,
          105,
          106,
          107,
          108,
          109,
          110,
          111,
          112,
          113,
          114,
          115,
          116,
          117,
          118,
          119,
          120,
          121,
          122,
          123,
          124,
          125,
          126,
          127,
          128,
          129,
          130,
          131,
          132,
          133,
          134,
          135,
          136,
          137,
          138,
          139,
          140,
          141,
          142,
          143,
          144,
          145,
          146,
          147,
          148,
          149,
          150,
          151,
          152,
          153,
          154,
          155,
          156,
          157,
          158,
          159,
          160,
          161,
          162,
          163,
          164,
          165,
          166,
          167,
          168,
          169,
          170,
          171,
          172,
          173,
          174,
          175,
          176,
          177,
          178,
          179,
          180,
          181,
          182,
          183,
          184,
          185,
          186,
          187,
          188,
          189,
          190,
          191,
          192
        ],
        "LargestImagePixelValue": [
          35845,
          35239,
          34231,
          34732,
          33813,
          33977,
          34143,
          33388,
          33941,
          33741,
          33063,
          33538,
          34063,
          33929,
          34074,
          33636,
          33824,
          33983,
          33434,
          33591,
          38594,
          33921,
          37301,
          33918,
          33721,
          33742,
          33817,
          33797,
          33893,
          33587,
          33656,
          34471,
          33775,
          33952,
          34218,
          33642,
          33456,
          33799,
          37884,
          34256,
          34408,
          34797,
          34881,
          33615,
          34035,
          34814,
          38306,
          34044,
          33968,
          35089,
          33707,
          33367,
          33929,
          35420,
          34956,
          33879,
          33806,
          36685,
          33708,
          33591,
          36764,
          36501,
          33667,
          33383,
          35075,
          33406,
          33831,
          34036,
          34138,
          34071,
          33875,
          34653,
          36161,
          33746,
          38025,
          33807,
          33246,
          35352,
          34023,
          33922,
          33537,
          36296,
          33820,
