{
  "aor": 0.0017177083333333332,
  "aqi": 0.008069094635416668,
  "bids_meta": {
    "AcquisitionMatrixPE": 104,
    "AcquisitionNumber": 1,
    "AcquisitionTime": "11:35:39.457500",
    "BandwidthPerPixelPhaseEncode": 16.578,
    "BaseResolution": 104,
    "BodyPartExamined": "BRAIN",
    "CogAtlasID": "TODO",
    "ConsistencyInfo": "N4_VE11C_LATEST_20160120",
    "ConversionSoftware": "dcm2niix",
    "ConversionSoftwareVersion": "v1.0.20190902",
    "DerivedVendorReportedEchoSpacing": 0.000580009,
    "DeviceSerialNumber": "166018",
    "DwellTime": 2.1e-06,
    "EchoTime": 0.037,
    "EchoTrainLength": 104,
    "EffectiveEchoSpacing": 0.000580009,
    "FlipAngle": 68,
    "ImageComments": "Unaliased_MB6_PE3_LB",
    "ImageOrientationPatientDICOM": [
      0.994698,
      -0.0553282,
      0.0866878,
      0.0641499,
      0.99266,
      -0.102526
    ],
    "ImageType": [
      "ORIGINAL",
      "PRIMARY",
      "M",
      "MB",
      "ND",
      "MOSAIC"
    ],
    "ImagingFrequency": 123.187,
    "InPlanePhaseEncodingDirectionDICOM": "COL",
    "InstitutionAddress": "Washington_Place_6_NYC_NYC_US_10003",
    "InstitutionName": "NYU_Center_for_Brain_Imaging",
    "InstitutionalDepartmentName": "Department",
    "MRAcquisitionType": "2D",
    "MagneticFieldStrength": 3,
    "Manufacturer": "Siemens",
    "ManufacturersModelName": "Prisma",
    "Modality": "MR",
    "MultibandAccelerationFactor": 6,
    "NumberOfVolumes": 192,
    "PartialFourier": 1,
    "PatientPosition": "HFS",
    "PercentPhaseFOV": 100,
    "PhaseEncodingDirection": "j",
    "PhaseEncodingSteps": 104,
    "PhaseResolution": 1,
    "PixelBandwidth": 2290,
    "ProcedureStepDescription": "Investigators_Winawer",
    "ProtocolName": "cmrr_mbepi_s6_2mm_66sl_PA_TR1.0",
    "PulseSequenceDetails": "%CustomerSeq%_cmrr_mbep2d_bold",
    "ReceiveCoilActiveElements": "HC1-7",
    "ReceiveCoilName": "HeadNeck_64",
    "ReconMatrixPE": 104,
    "RepetitionTime": 1,
    "SAR": 0.0783302,
    "ScanOptions": "FS",
    "ScanningSequence": "EP",
    "SequenceName": "epfid2d1_104",
    "SequenceVariant": "SK_SS",
    "SeriesDescription": "cmrr_mbepi_s6_2mm_66sl_PA_TR1.0",
    "SeriesNumber": 14,
    "ShimSetting": [
      289,
      -12569,
      -8490,
      291,
      -7,
      19,
      -115,
      -20
    ],
    "SliceThickness": 2,
    "SliceTiming": [
      0,
      0.535,
      0.09,
      0.625,
      0.18,
      0.7125,
      0.2675,
      0.8025,
      0.3575,
      0.8925,
      0.445,
      0,
      0.535,
      0.09,
      0.625,
      0.18,
      0.7125,
      0.2675,
      0.8025,
      0.3575,
      0.8925,
      0.445,
      0,
      0.535,
      0.09,
      0.625,
      0.18,
      0.7125,
      0.2675,
      0.8025,
      0.3575,
      0.8925,
      0.445,
      0,
      0.535,
      0.09,
      0.625,
      0.18,
      0.7125,
      0.2675,
      0.8025,
      0.3575,
      0.8925,
      0.445,
      0,
      0.535,
      0.09,
      0.625,
      0.18,
      0.7125,
      0.2675,
      0.8025,
      0.3575,
      0.8925,
      0.445,
      0,
      0.535,
      0.09,
      0.625,
      0.18,
      0.7125,
      0.2675,
      0.8025,
      0.3575,
      0.8925,
      0.445
    ],
    "SoftwareVersions": "syngo_MR_E11",
    "SpacingBetweenSlices": 2,
    "StationName": "AWP166018",
    "TaskName": "prf",
    "TotalReadoutTime": 0.0597409,
    "TxRefAmp": 208.721,
    "WipMemBlock": "a466239c-b909-428d-8fb1-260c82f4a55c||Sequence: ve11c/master r/ab69a6c; Apr 19 2017 09:47:47 by eja",
    "acq_id": "PA",
    "dataset": "unknown",
    "dcmmeta_affine": [
      [
        -1.9893958568572998,
        0.12829983234405518,
        0.16075778007507324,
        101.37809753417969
      ],
      [
        0.11065631359815598,
        1.9853192567825317,
        -0.21508699655532837,
        -65.62957763671875
      ],
      [
        0.17337557673454285,
        0.20505216717720032,
        1.9818916320800781,
        -67.0409164428711
      ],
      [
        0.0,
        0.0,
        0.0,
        1.0
      ]
    ],
    "dcmmeta_reorient_transform": [
      [
        0.0,
        -1.0,
        0.0,
        103.0
      ],
      [
        1.0,
        0.0,
        0.0,
        0.0
      ],
      [
        0.0,
        0.0,
        1.0,
        0.0
      ],
      [
        0.0,
        0.0,
        0.0,
        1.0
      ]
    ],
    "dcmmeta_shape": [
      104,
      104,
      66,
      192
    ],
    "dcmmeta_slice_dim": 2,
    "dcmmeta_version": 0.6,
    "global": {
      "const": {
        "AccessionNumber": "j66ik478",
        "AcquisitionMatrix": [
          104,
          0,
          0,
          104
        ],
        "AngioFlag": "N",
        "BitsAllocated": 16,
        "BitsStored": 16,
        "BodyPartExamined": "BRAIN",
        "Columns": 936,
        "EchoNumbers": 1,
        "EchoTime": 37.0,
        "EchoTrainLength": 104,
        "FlipAngle": 68.0,
        "HighBit": 15,
        "ImageOrientationPatient": [
          0.99469795526587,
          -0.0553281562539,
          0.08668778988672,
          0.06414991394605,
          0.99265965485144,
          -0.1025260853195
        ],
        "ImagePositionPatient": [
          -995.55441012872,
          -918.71811429132,
          -32.743077795519
        ],
        "ImageType": [
          "ORIGINAL",
          "PRIMARY",
          "M",
          "MB",
          "ND",
          "MOSAIC"
        ],
        "ImagedNucleus": "1H",
        "ImagingFrequency": 123.187278,
        "InPlanePhaseEncodingDirection": "COL",
        "MRAcquisitionType": "2D",
        "MagneticFieldStrength": 3.0,
        "Manufacturer": "SIEMENS",
        "ManufacturerModelName": "Prisma",
        "Modality": "MR",
        "NumberOfAverages": 1.0,
        "NumberOfPhaseEncodingSteps": 104,
        "PercentPhaseFieldOfView": 100.0,
        "PercentSampling": 100.0,
        "PerformedProcedureStepStartTime": "111750.314000",
        "PhotometricInterpretation": "MONOCHROME2",
        "PixelBandwidth": 2290.0,
        "PixelRepresentation": 0,
        "PixelSpacing": [
          2.0,
          2.0
        ],
        "ProtocolName": "cmrr_mbepi_s6_2mm_66sl_PA_TR1.0",
        "RepetitionTime": 1000.0,
        "Rows": 936,
        "SAR": 0.07833016078607,
        "SamplesPerPixel": 1,
        "ScanOptions": "FS",
        "ScanningSequence": "EP",
        "SequenceName": "epfid2d1_104",
        "SequenceVariant": [
          "SK",
          "SS"
        ],
        "SeriesDescription": "cmrr_mbepi_s6_2mm_66sl_PA_TR1.0",
        "SeriesNumber": 14,
        "SeriesTime": "113649.065000",
        "SliceLocation": -51.227218599238,
        "SliceThickness": 2.0,
        "SmallestImagePixelValue": 0,
        "SoftwareVersions": "syngo MR E11",
        "SpacingBetweenSlices": 1.9999999826765,
        "SpecificCharacterSet": "ISO_IR 100",
        "StudyID": "2",
        "StudyTime": "111750.025000",
        "TransmitCoilName": "Body",
        "VariableFlipAngleFlag": "N",
        "WindowCenterWidthExplanation": "Algo1",
        "dBdt": 0.0
      },
      "slices": {}
    },
    "modality": "bold",
    "run_id": 4,
    "session_id": "nyu3t01",
    "subject_id": "wlsubj014",
    "task_id": "prf",
    "time": {
      "samples": {
        "AcquisitionNumber": [
          1,
          2,
          3,
          4,
          5,
          6,
          7,
          8,
          9,
          10,
          11,
          12,
          13,
          14,
          15,
          16,
          17,
          18,
          19,
          20,
          21,
          22,
          23,
          24,
          25,
          26,
          27,
          28,
          29,
          30,
          31,
          32,
          33,
          34,
          35,
          36,
          37,
          38,
          39,
          40,
          41,
          42,
          43,
          44,
          45,
          46,
          47,
          48,
          49,
          50,
          51,
          52,
          53,
          54,
          55,
          56,
          57,
          58,
          59,
          60,
          61,
          62,
          63,
          64,
          65,
          66,
          67,
          68,
          69,
          70,
          71,
          72,
          73,
          74,
          75,
          76,
          77,
          78,
          79,
          80,
          81,
          82,
          83,
          84,
          85,
          86,
          87,
          88,
          89,
          90,
          91,
          92,
          93,
          94,
          95,
          96,
          97,
          98,
          99,
          100,
          101,
          102,
          103,
          104,
          105,
          106,
          107,
          108,
          109,
          110,
          111,
          112,
          113,
          114,
          115,
          116,
          117,
          118,
          119,
          120,
          121,
          122,
          123,
          124,
          125,
          126,
          127,
          128,
          129,
          130,
          131,
          132,
          133,
          134,
          135,
          136,
          137,
          138,
          139,
          140,
          141,
          142,
          143,
          144,
          145,
          146,
          147,
          148,
          149,
          150,
          151,
          152,
          153,
          154,
          155,
          156,
          157,
          158,
          159,
          160,
          161,
          162,
          163,
          164,
          165,
          166,
          167,
          168,
          169,
          170,
          171,
          172,
          173,
          174,
          175,
          176,
          177,
          178,
          179,
          180,
          181,
          182,
          183,
          184,
          185,
          186,
          187,
          188,
          189,
          190,
          191,
          192
        ],
        "AcquisitionTime": [
          "113539.457500",
          "113540.457500",
          "113541.457500",
          "113542.457500",
          "113543.457500",
          "113544.457500",
          "113545.457500",
          "113546.457500",
          "113547.457500",
          "113548.457500",
          "113549.457500",
          "113550.457500",
          "113551.457500",
          "113552.457500",
          "113553.457500",
          "113554.457500",
          "113555.457500",
          "113556.457500",
          "113557.457500",
          "113558.457500",
          "113559.457500",
          "113600.457500",
          "113601.457500",
          "113602.457500",
          "113603.457500",
          "113604.457500",
          "113605.457500",
          "113606.457500",
          "113607.457500",
          "113608.457500",
          "113609.457500",
          "113610.457500",
          "113611.457500",
          "113612.457500",
          "113613.457500",
          "113614.457500",
          "113615.457500",
          "113616.457500",
          "113617.457500",
          "113618.457500",
          "113619.457500",
          "113620.457500",
          "113621.457500",
          "113622.457500",
          "113623.457500",
          "113624.457500",
          "113625.457500",
          "113626.457500",
          "113627.457500",
          "113628.457500",
          "113629.457500",
          "113630.457500",
          "113631.457500",
          "113632.457500",
          "113633.457500",
          "113634.457500",
          "113635.457500",
          "113636.457500",
          "113637.457500",
          "113638.457500",
          "113639.457500",
          "113640.457500",
          "113641.457500",
          "113642.457500",
          "113643.457500",
          "113644.457500",
          "113645.457500",
          "113646.457500",
          "113647.457500",
          "113648.457500",
          "113649.457500",
          "113650.457500",
          "113651.457500",
          "113652.457500",
          "113653.457500",
          "113654.457500",
          "113655.457500",
          "113656.457500",
          "113657.457500",
          "113658.457500",
          "113659.457500",
          "113700.457500",
          "113701.457500",
          "113702.457500",
          "113703.457500",
          "113704.457500",
          "113705.457500",
          "113706.457500",
          "113707.457500",
          "113708.457500",
          "113709.457500",
          "113710.457500",
          "113711.457500",
          "113712.457500",
          "113713.457500",
          "113714.457500",
          "113715.457500",
          "113716.457500",
          "113717.457500",
          "113718.457500",
          "113719.457500",
          "113720.457500",
          "113721.457500",
          "113722.457500",
          "113723.457500",
          "113724.457500",
          "113725.457500",
          "113726.457500",
          "113727.457500",
          "113728.457500",
          "113729.457500",
          "113730.457500",
          "113731.457500",
          "113732.457500",
          "113733.457500",
          "113734.457500",
          "113735.457500",
          "113736.457500",
          "113737.457500",
          "113738.457500",
          "113739.457500",
          "113740.457500",
          "113741.457500",
          "113742.457500",
          "113743.457500",
          "113744.457500",
          "113745.457500",
          "113746.457500",
          "113747.457500",
          "113748.457500",
          "113749.457500",
          "113750.457500",
          "113751.457500",
          "113752.457500",
          "113753.457500",
          "113754.457500",
          "113755.457500",
          "113756.457500",
          "113757.457500",
          "113758.457500",
          "113759.457500",
          "113800.457500",
          "113801.457500",
          "113802.457500",
          "113803.457500",
          "113804.457500",
          "113805.457500",
          "113806.457500",
          "113807.457500",
          "113808.457500",
          "113809.457500",
          "113810.457500",
          "113811.457500",
          "113812.457500",
          "113813.457500",
          "113814.457500",
          "113815.457500",
          "113816.457500",
          "113817.457500",
          "113818.457500",
          "113819.457500",
          "113820.457500",
          "113821.457500",
          "113822.457500",
          "113823.457500",
          "113824.457500",
          "113825.457500",
          "113826.457500",
          "113827.457500",
          "113828.457500",
          "113829.457500",
          "113830.457500",
          "113831.457500",
          "113832.457500",
          "113833.457500",
          "113834.457500",
          "113835.457500",
          "113836.457500",
          "113837.457500",
          "113838.457500",
          "113839.457500",
          "113840.457500",
          "113841.457500",
          "113842.457500",
          "113843.457500",
          "113844.457500",
          "113845.457500",
          "113846.457500",
          "113847.457500",
          "113848.457500",
          "113849.457500",
          "113850.457500"
        ],
        "ContentTime": [
          "113649.068000",
          "113649.072000",
          "113649.075000",
          "113649.078000",
          "113649.081000",
          "113649.084000",
          "113649.087000",
          "113649.090000",
          "113649.093000",
          "113649.096000",
          "113649.100000",
          "113649.103000",
          "113649.106000",
          "113649.117000",
          "113649.120000",
          "113649.123000",
          "113649.126000",
          "113649.129000",
          "113649.132000",
          "113649.135000",
          "113649.138000",
          "113649.141000",
          "113649.144000",
          "113649.152000",
          "113649.156000",
          "113649.159000",
          "113649.162000",
          "113709.027000",
          "113709.030000",
          "113709.033000",
          "113709.036000",
          "113709.039000",
          "113709.042000",
          "113709.045000",
          "113709.049000",
          "113709.051000",
          "113709.055000",
          "113709.058000",
          "113709.061000",
          "113709.064000",
          "113709.067000",
          "113709.070000",
          "113709.073000",
          "113709.076000",
          "113709.079000",
          "113709.082000",
          "113709.085000",
          "113709.088000",
          "113709.091000",
          "113709.094000",
          "113709.097000",
          "113709.100000",
          "113709.103000",
          "113709.106000",
          "113709.109000",
          "113709.112000",
          "113729.027000",
          "113729.030000",
          "113729.033000",
          "113729.036000",
          "113729.039000",
          "113729.043000",
          "113729.046000",
          "113729.049000",
          "113729.052000",
          "113729.055000",
          "113729.058000",
          "113729.061000",
          "113729.064000",
          "113729.067000",
          "113729.070000",
          "113729.073000",
          "113729.076000",
          "113729.079000",
          "113729.082000",
          "113729.085000",
          "113729.088000",
          "113729.091000",
          "113729.094000",
          "113729.097000",
          "113729.100000",
          "113729.103000",
          "113729.106000",
          "113729.109000",
          "113749.027000",
          "113749.030000",
          "113749.046000",
          "113749.049000",
          "113749.052000",
          "113749.055000",
          "113749.058000",
          "113749.061000",
          "113749.064000",
          "113749.067000",
          "113749.070000",
          "113749.073000",
          "113749.076000",
          "113749.080000",
          "113749.083000",
          "113749.086000",
          "113749.089000",
          "113749.092000",
          "113749.095000",
          "113749.098000",
          "113749.101000",
          "113749.104000",
          "113749.107000",
          "113749.110000",
          "113749.113000",
          "113749.116000",
          "113749.126000",
          "113749.129000",
          "113809.027000",
          "113809.030000",
          "113809.033000",
          "113809.045000",
          "113809.048000",
          "113809.051000",
          "113809.054000",
          "113809.057000",
          "113809.060000",
          "113809.063000",
          "113809.066000",
          "113809.069000",
          "113809.072000",
          "113809.075000",
          "113809.079000",
          "113809.082000",
          "113809.085000",
          "113809.088000",
          "113809.091000",
          "113809.094000",
          "113809.097000",
          "113809.100000",
          "113809.112000",
          "113809.115000",
          "113809.118000",
          "113809.121000",
          "113809.124000",
          "113809.127000",
          "113809.130000",
          "113829.027000",
          "113829.030000",
          "113829.033000",
          "113829.036000",
          "113829.039000",
          "113829.042000",
          "113829.045000",
          "113829.048000",
          "113829.051000",
          "113829.054000",
          "113829.058000",
          "113829.061000",
          "113829.064000",
          "113829.067000",
          "113829.070000",
          "113829.073000",
          "113829.076000",
          "113829.079000",
          "113829.082000",
          "113829.085000",
          "113829.088000",
          "113829.091000",
          "113829.094000",
          "113829.097000",
          "113829.100000",
          "113829.103000",
          "113829.106000",
          "113829.109000",
          "113849.027000",
          "113849.030000",
          "113849.033000",
          "113849.036000",
          "113849.039000",
          "113849.042000",
          "113849.046000",
          "113849.049000",
          "113849.052000",
          "113849.055000",
          "113849.058000",
          "113849.061000",
          "113849.064000",
          "113849.067000",
          "113849.070000",
          "113849.073000",
          "113849.076000",
          "113849.079000",
          "113849.083000",
          "113849.086000",
          "113852.068000",
          "113852.072000",
          "113852.075000"
        ],
        "InstanceCreationTime": [
          "113649.068000",
          "113649.072000",
          "113649.075000",
          "113649.078000",
          "113649.081000",
          "113649.084000",
          "113649.087000",
          "113649.090000",
          "113649.093000",
          "113649.096000",
          "113649.100000",
          "113649.103000",
          "113649.106000",
          "113649.117000",
          "113649.120000",
          "113649.123000",
          "113649.126000",
          "113649.129000",
          "113649.132000",
          "113649.135000",
          "113649.138000",
          "113649.141000",
          "113649.144000",
          "113649.152000",
          "113649.156000",
          "113649.159000",
          "113649.162000",
          "113709.027000",
          "113709.030000",
          "113709.033000",
          "113709.036000",
          "113709.039000",
          "113709.042000",
          "113709.045000",
          "113709.049000",
          "113709.051000",
          "113709.055000",
          "113709.058000",
          "113709.061000",
          "113709.064000",
          "113709.067000",
          "113709.070000",
          "113709.073000",
          "113709.076000",
          "113709.079000",
          "113709.082000",
          "113709.085000",
          "113709.088000",
          "113709.091000",
          "113709.094000",
          "113709.097000",
          "113709.100000",
          "113709.103000",
          "113709.106000",
          "113709.109000",
          "113709.112000",
          "113729.027000",
          "113729.030000",
          "113729.033000",
          "113729.036000",
          "113729.039000",
          "113729.043000",
          "113729.046000",
          "113729.049000",
          "113729.052000",
          "113729.055000",
          "113729.058000",
          "113729.061000",
          "113729.064000",
          "113729.067000",
          "113729.070000",
          "113729.073000",
          "113729.076000",
          "113729.079000",
          "113729.082000",
          "113729.085000",
          "113729.088000",
          "113729.091000",
          "113729.094000",
          "113729.097000",
          "113729.100000",
          "113729.103000",
          "113729.106000",
          "113729.109000",
          "113749.027000",
          "113749.030000",
          "113749.046000",
          "113749.049000",
          "113749.052000",
          "113749.055000",
          "113749.058000",
          "113749.061000",
          "113749.064000",
          "113749.067000",
          "113749.070000",
          "113749.073000",
          "113749.076000",
          "113749.080000",
          "113749.083000",
          "113749.086000",
          "113749.089000",
          "113749.092000",
          "113749.095000",
          "113749.098000",
          "113749.101000",
          "113749.104000",
          "113749.107000",
          "113749.110000",
          "113749.113000",
          "113749.116000",
          "113749.126000",
          "113749.129000",
          "113809.027000",
          "113809.030000",
          "113809.033000",
          "113809.045000",
          "113809.048000",
          "113809.051000",
          "113809.054000",
          "113809.057000",
          "113809.060000",
          "113809.063000",
          "113809.066000",
          "113809.069000",
          "113809.072000",
          "113809.075000",
          "113809.079000",
          "113809.082000",
          "113809.085000",
          "113809.088000",
          "113809.091000",
          "113809.094000",
          "113809.097000",
          "113809.100000",
          "113809.112000",
          "113809.115000",
          "113809.118000",
          "113809.121000",
          "113809.124000",
          "113809.127000",
          "113809.130000",
          "113829.027000",
          "113829.030000",
          "113829.033000",
          "113829.036000",
          "113829.039000",
          "113829.042000",
          "113829.045000",
          "113829.048000",
          "113829.051000",
          "113829.054000",
          "113829.058000",
          "113829.061000",
          "113829.064000",
          "113829.067000",
          "113829.070000",
          "113829.073000",
          "113829.076000",
          "113829.079000",
          "113829.082000",
          "113829.085000",
          "113829.088000",
          "113829.091000",
          "113829.094000",
          "113829.097000",
          "113829.100000",
          "113829.103000",
          "113829.106000",
          "113829.109000",
          "113849.027000",
          "113849.030000",
          "113849.033000",
          "113849.036000",
          "113849.039000",
          "113849.042000",
          "113849.046000",
          "113849.049000",
          "113849.052000",
          "113849.055000",
          "113849.058000",
          "113849.061000",
          "113849.064000",
          "113849.067000",
          "113849.070000",
          "113849.073000",
          "113849.076000",
          "113849.079000",
          "113849.083000",
          "113849.086000",
          "113852.068000",
          "113852.072000",
          "113852.075000"
        ],
        "InstanceNumber": [
          1,
          2,
          3,
          4,
          5,
          6,
          7,
          8,
          9,
          10,
          11,
          12,
          13,
          14,
          15,
          16,
          17,
          18,
          19,
          20,
          21,
          22,
          23,
          24,
          25,
          26,
          27,
          28,
          29,
          30,
          31,
          32,
          33,
          34,
          35,
          36,
          37,
          38,
          39,
          40,
          41,
          42,
          43,
          44,
          45,
          46,
          47,
          48,
          49,
          50,
          51,
          52,
          53,
          54,
          55,
          56,
          57,
          58,
          59,
          60,
          61,
          62,
          63,
          64,
          65,
          66,
          67,
          68,
          69,
          70,
          71,
          72,
          73,
          74,
          75,
          76,
          77,
          78,
          79,
          80,
          81,
          82,
          83,
          84,
          85,
          86,
          87,
          88,
          89,
          90,
          91,
          92,
          93,
          94,
          95,
          96,
          97,
          98,
          99,
          100,
          101,
          102,
          103,
          104,
          105,
          106,
          107,
          108,
          109,
          110,
          111,
          112,
          113,
          114,
          115,
          116,
          117,
          118,
          119,
          120,
          121,
          122,
          123,
          124,
          125,
          126,
          127,
          128,
          129,
          130,
          131,
          132,
          133,
          134,
          135,
          136,
          137,
          138,
          139,
          140,
          141,
          142,
          143,
          144,
          145,
          146,
          147,
          148,
          149,
          150,
          151,
          152,
          153,
          154,
          155,
          156,
          157,
          158,
          159,
          160,
          161,
          162,
          163,
          164,
          165,
          166,
          167,
          168,
          169,
          170,
          171,
          172,
          173,
          174,
          175,
          176,
          177,
          178,
          179,
          180,
          181,
          182,
          183,
          184,
          185,
          186,
          187,
          188,
          189,
          190,
          191,
          192
        ],
        "LargestImagePixelValue": [
          39366,
          36350,
          35309,
          34554,
          37017,
          33732,
          33493,
          33213,
          36804,
          33916,
          37276,
          33643,
          33845,
          32928,
          34939,
          36961,
          33270,
          33030,
          33505,
          33695,
          33900,
          33411,
          34042,
          37431,
          38162,
          35701,
          33504,
          33959,
          33337,
          35327,
          34027,
          33329,
          33553,
          33063,
          35988,
          33923,
          34471,
          33842,
          33513,
          33792,
          33644,
          33414,
          34789,
          34620,
          33975,
          38902,
          40720,
          33183,
          33561,
          39631,
          33804,
          33354,
          38440,
          33973,
          33425,
          33843,
          33188,
          33942,
          33362,
          39121,
          32893,
          34183,
          33259,
          33283,
          34493,
          34191,
          34487,
          39178,
          33744,
          33487,
          33355,
          34139,
          33447,
          33424,
          33112,
          33314,
          33125,
          33517,
          34072,
          34298,
          33032,
          33805,
          33623,
