{
  "AcquisitionMatrixPE": 104,
  "AcquisitionNumber": 1,
  "AcquisitionTime": "14:12:43.455000",
  "BandwidthPerPixelPhaseEncode": 16.578,
  "BaseResolution": 104,
  "BodyPartExamined": "BRAIN",
  "ConsistencyInfo": "N4_VE11C_LATEST_20160120",
  "ConversionSoftware": "dcm2niix",
  "ConversionSoftwareVersion": "v1.0.20190902",
  "DerivedVendorReportedEchoSpacing": 0.000580009,
  "DeviceSerialNumber": "166018",
  "DwellTime": 2.1e-06,
  "EchoTime": 0.037,
  "EchoTrainLength": 104,
  "EffectiveEchoSpacing": 0.000580009,
  "FlipAngle": 68,
  "ImageComments": "Unaliased_MB6_PE3_LB",
  "ImageOrientationPatientDICOM": [0.989382, -0.12192, 0.0791149, 0.134473, 0.974424, -0.180039],
  "ImageType": [
    "ORIGINAL",
    "PRIMARY",
    "FMRI",
    "NONE",
    "MB",
    "ND",
    "MOSAIC"
],
  "ImagingFrequency": 123.191,
  "InPlanePhaseEncodingDirectionDICOM": "COL",
  "InstitutionAddress": "Washington_Place_6_NYC_NYC_US_10003",
  "InstitutionName": "NYU_-_CBI",
  "InstitutionalDepartmentName": "Department",
  "MRAcquisitionType": "2D",
  "MagneticFieldStrength": 3,
  "Manufacturer": "Siemens",
  "ManufacturersModelName": "Prisma",
  "Modality": "MR",
  "MultibandAccelerationFactor": 6,
  "PartialFourier": 1,
  "PatientPosition": "HFS",
  "PercentPhaseFOV": 100,
  "PhaseEncodingDirection": "j",
  "PhaseEncodingSteps": 104,
  "PhaseResolution": 1,
  "PixelBandwidth": 2290,
  "ProcedureStepDescription": "Investigators_Winawer",
  "ProtocolName": "cmrr_mbepi_s6_2mm_66sl_PA_task-prf",
  "PulseSequenceDetails": "%CustomerSeq%_cmrr_mbep2d_bold",
  "ReceiveCoilActiveElements": "HC1-7",
  "ReceiveCoilName": "HeadNeck_64",
  "ReconMatrixPE": 104,
  "RepetitionTime": 1,
  "SAR": 0.0750268,
  "ScanOptions": "FS",
  "ScanningSequence": "EP",
  "SequenceName": "epfid2d1_104",
  "SequenceVariant": "SK_SS",
  "SeriesDescription": "cmrr_mbepi_s6_2mm_66sl_PA_task-prf",
  "SeriesNumber": 20,
  "ShimSetting": [238, -12616, -8498, 285, -127, 41, -125, 36],
  "SliceThickness": 2,
  "SliceTiming": [0, 0.535, 0.0875, 0.6225, 0.1775, 0.7125, 0.2675, 0.8, 0.355, 0.89, 0.445, 0, 0.535, 0.0875, 0.6225, 0.1775, 0.7125, 0.2675, 0.8, 0.355, 0.89, 0.445, 0, 0.535, 0.0875, 0.6225, 0.1775, 0.7125, 0.2675, 0.8, 0.355, 0.89, 0.445, 0, 0.535, 0.0875, 0.6225, 0.1775, 0.7125, 0.2675, 0.8, 0.355, 0.89, 0.445, 0, 0.535, 0.0875, 0.6225, 0.1775, 0.7125, 0.2675, 0.8, 0.355, 0.89, 0.445, 0, 0.535, 0.0875, 0.6225, 0.1775, 0.7125, 0.2675, 0.8, 0.355, 0.89, 0.445],
  "SoftwareVersions": "syngo_MR_E11",
  "SpacingBetweenSlices": 2,
  "StationName": "AWP166018",
  "TaskName": "prf",
  "TotalReadoutTime": 0.0597409,
  "TxRefAmp": 203.648,
  "WipMemBlock": "69bb6aad-f0e0-4cf3-8755-8ddea7848d2b||Sequence: R016 ve11c/master r/8780670; Nov 27 2017 15:05:12 by eja",
  "dcmmeta_affine": [
    [-1.9787636995315552, 0.26894611120224, 0.11028233915567398, 94.43787384033203],
    [0.24383917450904846, 1.9488487243652344, -0.3775327503681183, -93.57462310791016],
    [0.1582297831773758, 0.36007845401763916, 1.9609453678131104, -72.21621704101562],
    [0.0, 0.0, 0.0, 1.0]
],
  "dcmmeta_reorient_transform": [
    [0.0, -1.0, 0.0, 103.0],
    [1.0, 0.0, 0.0, 0.0],
    [0.0, 0.0, 1.0, 0.0],
    [0.0, 0.0, 0.0, 1.0]
],
  "dcmmeta_shape": [104, 104, 66, 192],
  "dcmmeta_slice_dim": 2,
  "dcmmeta_version": 0.6,
  "global": {
    "const": {
      "AccessionNumber": "ju9s13g6",
      "AcquisitionMatrix": [104, 0, 0, 104],
      "AngioFlag": "N",
      "BitsAllocated": 16,
      "BitsStored": 16,
      "BodyPartExamined": "BRAIN",
      "Columns": 936,
      "EchoNumbers": 1,
      "EchoTime": 37.0,
      "EchoTrainLength": 104,
      "FlipAngle": 68.0,
      "HighBit": 15,
      "ImageOrientationPatient": [0.98938185192399, -0.1219195857489, 0.07911488920723, 0.13447305558157, 0.97442437955664, -0.1800392341913],
      "ImagePositionPatient": [-1057.1866076937, -816.44078865505, 48.8409231417],
      "ImageType": [
        "ORIGINAL",
        "PRIMARY",
        "FMRI",
        "NONE",
        "MB",
        "ND",
        "MOSAIC"
],
      "ImagedNucleus": "1H",
      "ImagingFrequency": 123.191054,
      "InPlanePhaseEncodingDirection": "COL",
      "MRAcquisitionType": "2D",
      "MagneticFieldStrength": 3.0,
      "Manufacturer": "SIEMENS",
      "ManufacturerModelName": "Prisma",
      "Modality": "MR",
      "NumberOfAverages": 1.0,
      "NumberOfPhaseEncodingSteps": 104,
      "PercentPhaseFieldOfView": 100.0,
      "PercentSampling": 100.0,
      "PerformedProcedureStepStartTime": "135754.892000",
      "PhotometricInterpretation": "MONOCHROME2",
      "PixelBandwidth": 2290.0,
      "PixelRepresentation": 0,
      "PixelSpacing": [2.0, 2.0],
      "ProtocolName": "cmrr_mbepi_s6_2mm_66sl_PA_task-prf",
      "RepetitionTime": 1000.0,
      "Rows": 936,
      "SAR": 0.07502680740289,
      "SamplesPerPixel": 1,
      "ScanOptions": "FS",
      "ScanningSequence": "EP",
      "SequenceName": "epfid2d1_104",
      "SequenceVariant": [
        "SK",
        "SS"
],
      "SeriesDescription": "cmrr_mbepi_s6_2mm_66sl_PA_task-prf",
      "SeriesNumber": 20,
      "SeriesTime": "141339.962000",
      "SliceLocation": -47.934869565641,
      "SliceThickness": 2.0,
      "SmallestImagePixelValue": 0,
      "SoftwareVersions": "syngo MR E11",
      "SpacingBetweenSlices": 2.0000000306811,
      "SpecificCharacterSet": "ISO_IR 100",
      "StudyID": "1",
      "StudyTime": "135754.839000",
      "TransmitCoilName": "Body",
      "VariableFlipAngleFlag": "N",
      "WindowCenterWidthExplanation": "Algo1",
      "dBdt": 0.0},
    "slices": {}
  },
  "time": {
    "samples": {
      "AcquisitionNumber": [1, 2, 3, 4, 5, 6, 7, 8, 9, 10, 11, 12, 13, 14, 15, 16, 17, 18, 19, 20, 21, 22, 23, 24, 25, 26, 27, 28, 29, 30, 31, 32, 33, 34, 35, 36, 37, 38, 39, 40, 41, 42, 43, 44, 45, 46, 47, 48, 49, 50, 51, 52, 53, 54, 55, 56, 57, 58, 59, 60, 61, 62, 63, 64, 65, 66, 67, 68, 69, 70, 71, 72, 73, 74, 75, 76, 77, 78, 79, 80, 81, 82, 83, 84, 85, 86, 87, 88, 89, 90, 91, 92, 93, 94, 95, 96, 97, 98, 99, 100, 101, 102, 103, 104, 105, 106, 107, 108, 109, 110, 111, 112, 113, 114, 115, 116, 117, 118, 119, 120, 121, 122, 123, 124, 125, 126, 127, 128, 129, 130, 131, 132, 133, 134, 135, 136, 137, 138, 139, 140, 141, 142, 143, 144, 145, 146, 147, 148, 149, 150, 151, 152, 153, 154, 155, 156, 157, 158, 159, 160, 161, 162, 163, 164, 165, 166, 167, 168, 169, 170, 171, 172, 173, 174, 175, 176, 177, 178, 179, 180, 181, 182, 183, 184, 185, 186, 187, 188, 189, 190, 191, 192],
      "AcquisitionTime": ["141243.455000", "141244.455000", "141245.455000", "141246.455000", "141247.455000", "141248.455000", "141249.455000", "141250.455000", "141251.455000", "141252.455000", "141253.455000", "141254.455000", "141255.455000", "141256.455000", "141257.455000", "141258.455000", "141259.455000", "141300.455000", "141301.455000", "141302.455000", "141303.455000", "141304.455000", "141305.455000", "141306.455000", "141307.455000", "141308.455000", "141309.455000", "141310.455000", "141311.455000", "141312.455000", "141313.455000", "141314.455000", "141315.455000", "141316.455000", "141317.455000", "141318.455000", "141319.455000", "141320.455000", "141321.455000", "141322.455000", "141323.455000", "141324.455000", "141325.455000", "141326.455000", "141327.455000", "141328.455000", "141329.455000", "141330.455000", "141331.455000", "141332.455000", "141333.455000", "141334.455000", "141335.455000", "141336.455000", "141337.455000", "141338.455000", "141339.455000", "141340.455000", "141341.455000", "141342.455000", "141343.455000", "141344.455000", "141345.455000", "141346.455000", "141347.455000", "141348.455000", "141349.455000", "141350.455000", "141351.455000", "141352.455000", "141353.455000", "141354.455000", "141355.455000", "141356.455000", "141357.455000", "141358.455000", "141359.455000", "141400.455000", "141401.455000", "141402.455000", "141403.455000", "141404.455000", "141405.455000", "141406.455000", "141407.455000", "141408.455000", "141409.455000", "141410.455000", "141411.455000", "141412.455000", "141413.455000", "141414.455000", "141415.455000", "141416.455000", "141417.455000", "141418.455000", "141419.455000", "141420.455000", "141421.455000", "141422.455000", "141423.455000", "141424.455000", "141425.455000", "141426.455000", "141427.455000", "141428.455000", "141429.455000", "141430.455000", "141431.455000", "141432.455000", "141433.455000", "141434.455000", "141435.455000", "141436.455000", "141437.455000", "141438.455000", "141439.455000", "141440.455000", "141441.455000", "141442.455000", "141443.455000", "141444.455000", "141445.455000", "141446.455000", "141447.455000", "141448.455000", "141449.455000", "141450.455000", "141451.455000", "141452.455000", "141453.455000", "141454.455000", "141455.455000", "141456.455000", "141457.455000", "141458.455000", "141459.455000", "141500.455000", "141501.455000", "141502.455000", "141503.455000", "141504.455000", "141505.455000", "141506.455000", "141507.455000", "141508.455000", "141509.455000", "141510.455000", "141511.455000", "141512.455000", "141513.455000", "141514.455000", "141515.455000", "141516.455000", "141517.455000", "141518.455000", "141519.455000", "141520.455000", "141521.455000", "141522.455000", "141523.455000", "141524.455000", "141525.455000", "141526.455000", "141527.455000", "141528.455000", "141529.455000", "141530.455000", "141531.455000", "141532.455000", "141533.455000", "141534.455000", "141535.455000", "141536.455000", "141537.455000", "141538.455000", "141539.455000", "141540.455000", "141541.455000", "141542.455000", "141543.455000", "141544.455000", "141545.455000", "141546.455000", "141547.455000", "141548.455000", "141549.455000", "141550.455000", "141551.455000", "141552.455000", "141553.455000", "141554.455000"],
      "ContentTime": ["141339.965000", "141340.572000", "141341.359000", "141342.145000", "141342.801000", "141343.553000", "141344.192000", "141344.987000", "141345.631000", "141346.484000", "141347.125000", "141347.936000", "141348.602000", "141349.341000", "141350.021000", "141350.770000", "141351.435000", "141352.168000", "141352.826000", "141353.751000", "141354.237000", "141354.990000", "141355.650000", "141356.503000", "141357.134000", "141357.966000", "141358.593000", "141359.365000", "141400.082000", "141400.763000", "141401.485000", "141402.178000", "141402.933000", "141403.616000", "141404.275000", "141405.034000", "141405.702000", "141406.471000", "141407.122000", "141407.915000", "141408.525000", "141409.275000", "141409.945000", "141410.648000", "141411.360000", "141412.068000", "141412.761000", "141413.455000", "141414.157000", "141414.915000", "141415.560000", "141416.262000", "141416.980000", "141417.695000", "141418.401000", "141419.080000", "141419.821000", "141420.597000", "141421.225000", "141421.938000", "141422.628000", "141423.279000", "141424.037000", "141424.731000", "141425.436000", "141426.114000", "141426.867000", "141427.495000", "141428.233000", "141429.697000", "141431.181000", "141431.871000", "141432.767000", "141433.697000", "141434.959000", "141435.597000", "141436.132000", "141436.229000", "141436.282000", "141436.333000", "141436.715000", "141437.377000", "141438.102000", "141438.769000", "141439.490000", "141440.323000", "141440.931000", "141441.605000", "141442.295000", "141443.014000", "141443.734000", "141444.526000", "141445.732000", "141446.034000", "141446.929000", "141447.299000", "141448.382000", "141448.801000", "141449.355000", "141450.158000", "141450.843000", "141451.517000", "141452.406000", "141452.995000", "141453.661000", "141454.289000", "141454.985000", "141455.709000", "141456.429000", "141457.215000", "141457.912000", "141458.511000", "141459.235000", "141459.931000", "141500.645000", "141501.324000", "141502.071000", "141502.734000", "141503.480000", "141504.136000", "141504.918000", "141505.535000", "141506.294000", "141506.967000", "141507.681000", "141508.394000", "141509.096000", "141509.798000", "141510.477000", "141511.201000", "141511.926000", "141512.605000", "141513.278000", "141513.997000", "141514.676000", "141515.395000", "141516.114000", "141516.817000", "141517.569000", "141518.231000", "141518.944000", "141519.611000", "141520.313000", "141521.044000", "141521.683000", "141522.454000", "141523.127000", "141523.875000", "141524.514000", "141525.296000", "141525.952000", "141526.678000", "141527.356000", "141528.040000", "141528.753000", "141529.438000", "141530.294000", "141530.950000", "141531.692000", "141532.371000", "141533.102000", "141533.923000", "141534.505000", "141535.230000", "141535.943000", "141536.697000", "141537.358000", "141538.117000", "141538.774000", "141539.527000", "141540.189000", "141540.995000", "141541.656000", "141542.392000", "141543.151000", "141543.796000", "141544.579000", "141545.240000", "141545.987000", "141546.626000", "141547.391000", "141548.026000", "141548.806000", "141549.468000", "141550.187000", "141550.838000", "141551.579000", "141552.277000", "141552.995000", "141553.993000", "141554.998000", "141555.996000"],
      "InstanceCreationTime": ["141339.965000", "141340.572000", "141341.359000", "141342.145000", "141342.801000", "141343.553000", "141344.192000", "141344.987000", "141345.631000", "141346.484000", "141347.125000", "141347.936000", "141348.602000", "141349.341000", "141350.021000", "141350.770000", "141351.435000", "141352.168000", "141352.826000", "141353.751000", "141354.237000", "141354.990000", "141355.650000", "141356.503000", "141357.134000", "141357.966000", "141358.593000", "141359.365000", "141400.082000", "141400.763000", "141401.485000", "141402.178000", "141402.933000", "141403.616000", "141404.275000", "141405.034000", "141405.702000", "141406.471000", "141407.122000", "141407.915000", "141408.525000", "141409.275000", "141409.945000", "141410.648000", "141411.360000", "141412.068000", "141412.761000", "141413.455000", "141414.157000", "141414.915000", "141415.560000", "141416.262000", "141416.980000", "141417.695000", "141418.401000", "141419.080000", "141419.821000", "141420.597000", "141421.225000", "141421.938000", "141422.628000", "141423.279000", "141424.037000", "141424.731000", "141425.436000", "141426.114000", "141426.867000", "141427.495000", "141428.233000", "141429.697000", "141431.181000", "141431.871000", "141432.767000", "141433.697000", "141434.959000", "141435.597000", "141436.132000", "141436.229000", "141436.282000", "141436.333000", "141436.715000", "141437.377000", "141438.102000", "141438.769000", "141439.490000", "141440.323000", "141440.931000", "141441.605000", "141442.295000", "141443.014000", "141443.734000", "141444.526000", "141445.732000", "141446.034000", "141446.929000", "141447.299000", "141448.382000", "141448.801000", "141449.355000", "141450.158000", "141450.843000", "141451.517000", "141452.406000", "141452.995000", "141453.661000", "141454.289000", "141454.985000", "141455.709000", "141456.429000", "141457.215000", "141457.912000", "141458.511000", "141459.235000", "141459.931000", "141500.645000", "141501.324000", "141502.071000", "141502.734000", "141503.480000", "141504.136000", "141504.918000", "141505.535000", "141506.294000", "141506.967000", "141507.681000", "141508.394000", "141509.096000", "141509.798000", "141510.477000", "141511.201000", "141511.926000", "141512.605000", "141513.278000", "141513.997000", "141514.676000", "141515.395000", "141516.114000", "141516.817000", "141517.569000", "141518.231000", "141518.944000", "141519.611000", "141520.313000", "141521.044000", "141521.683000", "141522.454000", "141523.127000", "141523.875000", "141524.514000", "141525.296000", "141525.952000", "141526.678000", "141527.356000", "141528.040000", "141528.753000", "141529.438000", "141530.294000", "141530.950000", "141531.692000", "141532.371000", "141533.102000", "141533.923000", "141534.505000", "141535.230000", "141535.943000", "141536.697000", "141537.358000", "141538.117000", "141538.774000", "141539.527000", "141540.189000", "141540.995000", "141541.656000", "141542.392000", "141543.151000", "141543.796000", "141544.579000", "141545.240000", "141545.987000", "141546.626000", "141547.391000", "141548.026000", "141548.806000", "141549.468000", "141550.187000", "141550.838000", "141551.579000", "141552.277000", "141552.995000", "141553.993000", "141554.998000", "141555.996000"],
      "InstanceNumber": [1, 2, 3, 4, 5, 6, 7, 8, 9, 10, 11, 12, 13, 14, 15, 16, 17, 18, 19, 20, 21, 22, 23, 24, 25, 26, 27, 28, 29, 30, 31, 32, 33, 34, 35, 36, 37, 38, 39, 40, 41, 42, 43, 44, 45, 46, 47, 48, 49, 50, 51, 52, 53, 54, 55, 56, 57, 58, 59, 60, 61, 62, 63, 64, 65, 66, 67, 68, 69, 70, 71, 72, 73, 74, 75, 76, 77, 78, 79, 80, 81, 82, 83, 84, 85, 86, 87, 88, 89, 90, 91, 92, 93, 94, 95, 96, 97, 98, 99, 100, 101, 102, 103, 104, 105, 106, 107, 108, 109, 110, 111, 112, 113, 114, 115, 116, 117, 118, 119, 120, 121, 122, 123, 124, 125, 126, 127, 128, 129, 130, 131, 132, 133, 134, 135, 136, 137, 138, 139, 140, 141, 142, 143, 144, 145, 146, 147, 148, 149, 150, 151, 152, 153, 154, 155, 156, 157, 158, 159, 160, 161, 162, 163, 164, 165, 166, 167, 168, 169, 170, 171, 172, 173, 174, 175, 176, 177, 178, 179, 180, 181, 182, 183, 184, 185, 186, 187, 188, 189, 190, 191, 192],
      "LargestImagePixelValue": [31146, 31096, 30389, 30980, 30877, 31327, 30842, 31067, 30975, 30876, 31295, 30837, 31499, 31325, 31110, 31679, 31270, 30911, 31216, 31087, 31063, 30992, 30855, 31330, 30691, 30838, 31196, 30567, 30932, 31535, 31942, 31223, 31321, 30962, 30932, 30949, 30787, 30977, 31572, 31452, 31823, 31405, 31185, 30920, 30681, 30920, 30927, 31417, 31815, 31551, 31906, 31505, 30738, 30443, 30898, 30983, 30863, 30317, 31372, 31781, 30865, 31002, 30733, 30614, 31615, 30787, 30859, 31007, 30734, 30957, 30957, 30764, 31343, 30766, 31072, 31223, 31535, 30854, 31064, 30826, 30847, 30934, 30847, 30704, 30662, 31174, 30705, 30615, 30830, 30689, 30821, 31478, 31275, 30927, 31186, 30495, 31028, 31185, 30927, 31078, 30645, 30991, 30629, 30526, 30717, 30590, 30881, 30590, 30420, 30626, 30507, 30598, 30364, 30545, 30656, 30528, 30748, 30684, 30300, 31076, 30899, 31379, 31334, 31685, 31029, 30720, 30918, 31099, 30981, 31220, 31177, 30994, 31045, 30360, 30575, 30658, 31250, 30843, 31337, 31149, 30881, 30661, 30597, 30425, 31556, 30631, 30684, 30442, 30636, 30609, 30493, 30920, 31356, 30905, 30523, 30691, 31635, 30605, 31574, 30715, 30913, 30582, 31030, 30362, 31354, 30320, 31142, 30713, 30542, 30723, 30640, 30437, 30165, 30307, 30195, 30403, 31075, 30837, 31027, 31259, 30819, 30503, 30820, 30861, 30353, 30993, 31078, 31414, 31133, 30846, 30873, 30607],
      "WindowCenter": [9403.0, 9378.0, 9365.0, 9376.0, 9368.0, 9371.0, 9351.0, 9356.0, 9355.0, 9343.0, 9353.0, 9348.0, 9355.0, 9365.0, 9368.0, 9387.0, 9383.0, 9370.0, 9373.0, 9367.0, 9361.0, 9358.0, 9350.0, 9362.0, 9350.0, 9357.0, 9357.0, 9358.0, 9356.0, 9369.0, 9369.0, 9364.0, 9364.0, 9352.0, 9357.0, 9358.0, 9341.0, 9340.0, 9352.0, 9348.0, 9347.0, 9348.0, 9350.0, 9350.0, 9348.0, 9355.0, 9357.0, 9364.0, 9363.0, 9360.0, 9359.0, 9346.0, 9340.0, 9326.0, 9332.0, 9329.0, 9325.0, 9327.0, 9349.0, 9361.0, 9362.0, 9365.0, 9359.0, 9361.0, 9372.0, 9360.0, 9355.0, 9359.0, 9353.0, 9360.0, 9360.0, 9360.0, 9367.0, 9368.0, 9373.0, 9380.0, 9379.0, 9369.0, 9374.0, 9368.0, 9368.0, 9367.0, 9362.0, 9368.0, 9362.0, 9368.0, 9368.0, 9371.0, 9368.0, 9360.0, 9354.0, 9363.0, 9353.0, 9348.0, 9348.0, 9343.0, 9350.0, 9353.0, 9358.0, 9357.0, 9352.0, 9359.0, 9350.0, 9344.0, 9342.0, 9335.0, 9338.0, 9332.0, 9327.0, 9333.0, 9327.0, 9333.0, 9328.0, 9335.0, 9336.0, 9337.0, 9350.0, 9349.0, 9351.0, 9364.0, 9373.0, 9379.0, 9375.0, 9380.0, 9376.0, 9370.0, 9375.0, 9373.0, 9369.0, 9366.0, 9357.0, 9351.0, 9351.0, 9344.0, 9343.0, 9336.0, 9356.0, 9335.0, 9341.0, 9341.0, 9342.0, 9335.0, 9335.0, 9337.0, 9354.0, 9342.0, 9344.0, 9347.0, 9352.0, 9350.0, 9347.0, 9362.0, 9367.0, 9360.0, 9348.0, 9346.0, 9357.0, 9346.0, 9358.0, 9353.0, 9356.0, 9362.0, 9355.0, 9355.0, 9369.0, 9359.0, 9369.0, 9364.0, 9363.0, 9370.0, 9361.0, 9360.0, 9355.0, 9354.0, 9354.0, 9354.0, 9366.0, 9361.0, 9367.0, 9375.0, 9363.0, 9357.0, 9370.0, 9372.0, 9366.0, 9378.0, 9377.0, 9376.0, 9370.0, 9362.0, 9362.0, 9354.0],
      "WindowWidth": [20001.0, 19942.0, 19915.0, 19935.0, 19917.0, 19915.0, 19877.0, 19884.0, 19880.0, 19859.0, 19876.0, 19868.0, 19882.0, 19908.0, 19918.0, 19953.0, 19949.0, 19925.0, 19927.0, 19917.0, 19903.0, 19891.0, 19875.0, 19895.0, 19874.0, 19884.0, 19884.0, 19887.0, 19884.0, 19907.0, 19907.0, 19900.0, 19901.0, 19884.0, 19888.0, 19894.0, 19857.0, 19852.0, 19875.0, 19869.0, 19866.0, 19867.0, 19871.0, 19871.0, 19863.0, 19879.0, 19883.0, 19897.0, 19895.0, 19887.0, 19882.0, 19859.0, 19846.0, 19820.0, 19827.0, 19819.0, 19814.0, 19822.0, 19863.0, 19891.0, 19901.0, 19905.0, 19894.0, 19901.0, 19919.0, 19899.0, 19891.0, 19898.0, 19886.0, 19899.0, 19897.0, 19899.0, 19910.0, 19912.0, 19921.0, 19932.0, 19931.0, 19914.0, 19922.0, 19911.0, 19909.0, 19908.0, 19902.0, 19913.0, 19905.0, 19916.0, 19918.0, 19927.0, 19916.0, 19900.0, 19887.0, 19898.0, 19873.0, 19863.0, 19864.0, 19858.0, 19872.0, 19880.0, 19890.0, 19887.0, 19879.0, 19891.0, 19872.0, 19861.0, 19854.0, 19839.0, 19840.0, 19830.0, 19822.0, 19835.0, 19826.0, 19836.0, 19829.0, 19844.0, 19846.0, 19849.0, 19875.0, 19870.0, 19876.0, 19899.0, 19921.0, 19932.0, 19926.0, 19933.0, 19930.0, 19918.0, 19926.0, 19919.0, 19911.0, 19901.0, 19883.0, 19872.0, 19874.0, 19861.0, 19859.0, 19848.0, 19886.0, 19845.0, 19853.0, 19852.0, 19852.0, 19840.0, 19840.0, 19847.0, 19875.0, 19854.0, 19860.0, 19869.0, 19878.0, 19874.0, 19871.0, 19901.0, 19908.0, 19896.0, 19876.0, 19870.0, 19888.0, 19871.0, 19893.0, 19888.0, 19896.0, 19906.0, 19892.0, 19891.0, 19916.0, 19900.0, 19917.0, 19908.0, 19904.0, 19915.0, 19896.0, 19893.0, 19887.0, 19881.0, 19884.0, 19884.0, 19905.0, 19899.0, 19910.0, 19926.0, 19905.0, 19897.0, 19922.0, 19928.0, 19919.0, 19939.0, 19935.0, 19930.0, 19917.0, 19902.0, 19899.0, 19883.0]
    },
    "slices": {}
  },
  "NumberOfVolumes": 192
}