{
  "aor": 0.0006209895833333333,
  "aqi": 0.005438610885416667,
  "bids_meta": {
    "AcquisitionMatrixPE": 104,
    "AcquisitionNumber": 1,
    "AcquisitionTime": "14:00:9.507500",
    "BandwidthPerPixelPhaseEncode": 16.578,
    "BaseResolution": 104,
    "BodyPartExamined": "BRAIN",
    "CogAtlasID": "TODO",
    "CoilString": "HC2_4_6_7;NC2",
    "ConsistencyInfo": "N4_VE11C_LATEST_20160120",
    "ConversionSoftware": "dcm2niix",
    "ConversionSoftwareVersion": "v1.0.20190902",
    "DerivedVendorReportedEchoSpacing": 0.000580009,
    "DeviceSerialNumber": "166018",
    "DwellTime": 2.1e-06,
    "EchoTime": 0.037,
    "EchoTrainLength": 104,
    "EffectiveEchoSpacing": 0.000580009,
    "FlipAngle": 68,
    "ImageComments": "Unaliased_MB6_PE3_LB",
    "ImageOrientationPatientDICOM": [
      0.99694,
      0.0728965,
      -0.0282351,
      -0.0777606,
      0.961809,
      -0.262444
    ],
    "ImageType": [
      "ORIGINAL",
      "PRIMARY",
      "M",
      "MB",
      "ND",
      "MOSAIC"
    ],
    "ImagingFrequency": 123.191,
    "InPlanePhaseEncodingDirectionDICOM": "COL",
    "InstitutionAddress": "Washington_Place_6_NYC_NYC_US_10003",
    "InstitutionName": "NYU_-_CBI",
    "InstitutionalDepartmentName": "Department",
    "MRAcquisitionType": "2D",
    "MagneticFieldStrength": 3,
    "Manufacturer": "Siemens",
    "ManufacturersModelName": "Prisma",
    "Modality": "MR",
    "MultibandAccelerationFactor": 6,
    "NumberOfVolumes": 192,
    "PartialFourier": 1,
    "PatientPosition": "HFS",
    "PercentPhaseFOV": 100,
    "PhaseEncodingDirection": "j",
    "PhaseEncodingSteps": 104,
    "PhaseResolution": 1,
    "PixelBandwidth": 2290,
    "ProcedureStepDescription": "Investigators_Winawer",
    "ProtocolName": "cmrr_mbepi_s6_2mm_66sl_PA_task-prf",
    "PulseSequenceDetails": "%CustomerSeq%_cmrr_mbep2d_bold",
    "ReceiveCoilActiveElements": "HC2,4,6,7;NC2",
    "ReceiveCoilName": "HeadNeck_64",
    "ReconMatrixPE": 104,
    "RepetitionTime": 1,
    "SAR": 0.077943,
    "ScanOptions": "FS",
    "ScanningSequence": "EP",
    "SequenceName": "epfid2d1_104",
    "SequenceVariant": "SK_SS",
    "SeriesDescription": "cmrr_mbepi_s6_2mm_66sl_PA_task-prf",
    "SeriesNumber": 22,
    "ShimSetting": [
      256,
      -12581,
      -8389,
      323,
      7,
      -52,
      -146,
      -10
    ],
    "SliceThickness": 2,
    "SliceTiming": [
      0,
      0.535,
      0.09,
      0.625,
      0.18,
      0.7125,
      0.2675,
      0.8025,
      0.3575,
      0.8925,
      0.4475,
      0,
      0.535,
      0.09,
      0.625,
      0.18,
      0.7125,
      0.2675,
      0.8025,
      0.3575,
      0.8925,
      0.4475,
      0,
      0.535,
      0.09,
      0.625,
      0.18,
      0.7125,
      0.2675,
      0.8025,
      0.3575,
      0.8925,
      0.4475,
      0,
      0.535,
      0.09,
      0.625,
      0.18,
      0.7125,
      0.2675,
      0.8025,
      0.3575,
      0.8925,
      0.4475,
      0,
      0.535,
      0.09,
      0.625,
      0.18,
      0.7125,
      0.2675,
      0.8025,
      0.3575,
      0.8925,
      0.4475,
      0,
      0.535,
      0.09,
      0.625,
      0.18,
      0.7125,
      0.2675,
      0.8025,
      0.3575,
      0.8925,
      0.4475
    ],
    "SoftwareVersions": "syngo_MR_E11",
    "SpacingBetweenSlices": 2,
    "StationName": "AWP166018",
    "TaskName": "prf",
    "TotalReadoutTime": 0.0597409,
    "TxRefAmp": 258.129,
    "WipMemBlock": "8770aa9a-5d9f-47ad-a0bb-c375f9f61401||Sequence: R016 ve11c/master r/8780670; Nov 27 2017 15:05:12 by eja",
    "acq_id": "PA",
    "dataset": "unknown",
    "dcmmeta_affine": [
      [
        -1.9938795566558838,
        -0.1555212289094925,
        -0.016051094979047775,
        113.23104858398438
      ],
      [
        -0.14579299092292786,
        1.9236178398132324,
        -0.5276731252670288,
        -58.57796096801758
      ],
      [
        -0.056470271199941635,
        0.5248882174491882,
        1.9290679693222046,
        -64.42155456542969
      ],
      [
        0.0,
        0.0,
        0.0,
        1.0
      ]
    ],
    "dcmmeta_reorient_transform": [
      [
        0.0,
        -1.0,
        0.0,
        103.0
      ],
      [
        1.0,
        0.0,
        0.0,
        0.0
      ],
      [
        0.0,
        0.0,
        1.0,
        0.0
      ],
      [
        0.0,
        0.0,
        0.0,
        1.0
      ]
    ],
    "dcmmeta_shape": [
      104,
      104,
      66,
      192
    ],
    "dcmmeta_slice_dim": 2,
    "dcmmeta_version": 0.6,
    "global": {
      "const": {
        "AccessionNumber": "k58k8281",
        "AcquisitionMatrix": [
          104,
          0,
          0,
          104
        ],
        "AngioFlag": "N",
        "BitsAllocated": 16,
        "BitsStored": 16,
        "BodyPartExamined": "BRAIN",
        "Columns": 936,
        "EchoNumbers": 1,
        "EchoTime": 37.0,
        "EchoTrainLength": 104,
        "FlipAngle": 68.0,
        "HighBit": 15,
        "ImageOrientationPatient": [
          0.996939756352,
          0.07289649737074,
          -0.0282351354857,
          -0.077760612073,
          0.96180890561778,
          -0.2624441203082
        ],
        "ImagePositionPatient": [
          -861.96941431181,
          -1000.4295677899,
          231.48707645292
        ],
        "ImageType": [
          "ORIGINAL",
          "PRIMARY",
          "M",
          "MB",
          "ND",
          "MOSAIC"
        ],
        "ImagedNucleus": "1H",
        "ImagingFrequency": 123.190703,
        "InPlanePhaseEncodingDirection": "COL",
        "MRAcquisitionType": "2D",
        "MagneticFieldStrength": 3.0,
        "Manufacturer": "SIEMENS",
        "ManufacturerModelName": "Prisma",
        "Modality": "MR",
        "NumberOfAverages": 1.0,
        "NumberOfPhaseEncodingSteps": 104,
        "PercentPhaseFieldOfView": 100.0,
        "PercentSampling": 100.0,
        "PerformedProcedureStepStartTime": "130943.376000",
        "PhotometricInterpretation": "MONOCHROME2",
        "PixelBandwidth": 2290.0,
        "PixelRepresentation": 0,
        "PixelSpacing": [
          2.0,
          2.0
        ],
        "ProtocolName": "cmrr_mbepi_s6_2mm_66sl_PA_task-prf",
        "RepetitionTime": 1000.0,
        "Rows": 936,
        "SAR": 0.07794298484547,
        "SamplesPerPixel": 1,
        "ScanOptions": "FS",
        "ScanningSequence": "EP",
        "SequenceName": "epfid2d1_104",
        "SequenceVariant": [
          "SK",
          "SS"
        ],
        "SeriesDescription": "cmrr_mbepi_s6_2mm_66sl_PA_task-prf",
        "SeriesNumber": 22,
        "SeriesTime": "140052.787000",
        "SliceLocation": -47.590512414287,
        "SliceThickness": 2.0,
        "SmallestImagePixelValue": 0,
        "SoftwareVersions": "syngo MR E11",
        "SpacingBetweenSlices": 1.9999999761144,
        "SpecificCharacterSet": "ISO_IR 100",
        "StudyID": "1",
        "StudyTime": "130943.263000",
        "TransmitCoilName": "Body",
        "VariableFlipAngleFlag": "N",
        "WindowCenterWidthExplanation": "Algo1",
        "dBdt": 0.0
      },
      "slices": {}
    },
    "modality": "bold",
    "run_id": 8,
    "session_id": "nyu3t01",
    "subject_id": "wlsubj121",
    "task_id": "prf",
    "time": {
      "samples": {
        "AcquisitionNumber": [
          1,
          2,
          3,
          4,
          5,
          6,
          7,
          8,
          9,
          10,
          11,
          12,
          13,
          14,
          15,
          16,
          17,
          18,
          19,
          20,
          21,
          22,
          23,
          24,
          25,
          26,
          27,
          28,
          29,
          30,
          31,
          32,
          33,
          34,
          35,
          36,
          37,
          38,
          39,
          40,
          41,
          42,
          43,
          44,
          45,
          46,
          47,
          48,
          49,
          50,
          51,
          52,
          53,
          54,
          55,
          56,
          57,
          58,
          59,
          60,
          61,
          62,
          63,
          64,
          65,
          66,
          67,
          68,
          69,
          70,
          71,
          72,
          73,
          74,
          75,
          76,
          77,
          78,
          79,
          80,
          81,
          82,
          83,
          84,
          85,
          86,
          87,
          88,
          89,
          90,
          91,
          92,
          93,
          94,
          95,
          96,
          97,
          98,
          99,
          100,
          101,
          102,
          103,
          104,
          105,
          106,
          107,
          108,
          109,
          110,
          111,
          112,
          113,
          114,
          115,
          116,
          117,
          118,
          119,
          120,
          121,
          122,
          123,
          124,
          125,
          126,
          127,
          128,
          129,
          130,
          131,
          132,
          133,
          134,
          135,
          136,
          137,
          138,
          139,
          140,
          141,
          142,
          143,
          144,
          145,
          146,
          147,
          148,
          149,
          150,
          151,
          152,
          153,
          154,
          155,
          156,
          157,
          158,
          159,
          160,
          161,
          162,
          163,
          164,
          165,
          166,
          167,
          168,
          169,
          170,
          171,
          172,
          173,
          174,
          175,
          176,
          177,
          178,
          179,
          180,
          181,
          182,
          183,
          184,
          185,
          186,
          187,
          188,
          189,
          190,
          191,
          192
        ],
        "AcquisitionTime": [
          "140009.507500",
          "140010.507500",
          "140011.507500",
          "140012.507500",
          "140013.507500",
          "140014.507500",
          "140015.507500",
          "140016.507500",
          "140017.507500",
          "140018.507500",
          "140019.507500",
          "140020.507500",
          "140021.507500",
          "140022.507500",
          "140023.507500",
          "140024.507500",
          "140025.507500",
          "140026.507500",
          "140027.507500",
          "140028.507500",
          "140029.507500",
          "140030.507500",
          "140031.507500",
          "140032.507500",
          "140033.507500",
          "140034.507500",
          "140035.507500",
          "140036.507500",
          "140037.507500",
          "140038.507500",
          "140039.507500",
          "140040.507500",
          "140041.507500",
          "140042.507500",
          "140043.507500",
          "140044.507500",
          "140045.507500",
          "140046.507500",
          "140047.507500",
          "140048.507500",
          "140049.507500",
          "140050.507500",
          "140051.507500",
          "140052.507500",
          "140053.507500",
          "140054.507500",
          "140055.507500",
          "140056.507500",
          "140057.507500",
          "140058.507500",
          "140059.507500",
          "140100.507500",
          "140101.507500",
          "140102.507500",
          "140103.507500",
          "140104.507500",
          "140105.507500",
          "140106.507500",
          "140107.507500",
          "140108.507500",
          "140109.507500",
          "140110.507500",
          "140111.507500",
          "140112.507500",
          "140113.507500",
          "140114.507500",
          "140115.507500",
          "140116.507500",
          "140117.507500",
          "140118.507500",
          "140119.507500",
          "140120.507500",
          "140121.507500",
          "140122.507500",
          "140123.507500",
          "140124.507500",
          "140125.507500",
          "140126.507500",
          "140127.507500",
          "140128.507500",
          "140129.507500",
          "140130.507500",
          "140131.507500",
          "140132.507500",
          "140133.507500",
          "140134.507500",
          "140135.507500",
          "140136.507500",
          "140137.507500",
          "140138.507500",
          "140139.507500",
          "140140.507500",
          "140141.507500",
          "140142.507500",
          "140143.507500",
          "140144.507500",
          "140145.507500",
          "140146.507500",
          "140147.507500",
          "140148.507500",
          "140149.507500",
          "140150.507500",
          "140151.507500",
          "140152.507500",
          "140153.507500",
          "140154.507500",
          "140155.507500",
          "140156.507500",
          "140157.507500",
          "140158.507500",
          "140159.507500",
          "140200.507500",
          "140201.507500",
          "140202.507500",
          "140203.507500",
          "140204.507500",
          "140205.507500",
          "140206.507500",
          "140207.507500",
          "140208.507500",
          "140209.507500",
          "140210.507500",
          "140211.507500",
          "140212.507500",
          "140213.507500",
          "140214.507500",
          "140215.507500",
          "140216.507500",
          "140217.507500",
          "140218.507500",
          "140219.507500",
          "140220.507500",
          "140221.507500",
          "140222.507500",
          "140223.507500",
          "140224.507500",
          "140225.507500",
          "140226.507500",
          "140227.507500",
          "140228.507500",
          "140229.507500",
          "140230.507500",
          "140231.507500",
          "140232.507500",
          "140233.507500",
          "140234.507500",
          "140235.507500",
          "140236.507500",
          "140237.507500",
          "140238.507500",
          "140239.507500",
          "140240.507500",
          "140241.507500",
          "140242.507500",
          "140243.507500",
          "140244.507500",
          "140245.507500",
          "140246.507500",
          "140247.507500",
          "140248.507500",
          "140249.507500",
          "140250.507500",
          "140251.507500",
          "140252.507500",
          "140253.507500",
          "140254.507500",
          "140255.507500",
          "140256.507500",
          "140257.507500",
          "140258.507500",
          "140259.507500",
          "140300.507500",
          "140301.507500",
          "140302.507500",
          "140303.507500",
          "140304.507500",
          "140305.507500",
          "140306.507500",
          "140307.507500",
          "140308.507500",
          "140309.507500",
          "140310.507500",
          "140311.507500",
          "140312.507500",
          "140313.507500",
          "140314.507500",
          "140315.507500",
          "140316.507500",
          "140317.507500",
          "140318.507500",
          "140319.507500",
          "140320.507500"
        ],
        "ContentTime": [
          "140052.790000",
          "140052.794000",
          "140052.804000",
          "140052.810000",
          "140052.813000",
          "140052.816000",
          "140052.819000",
          "140052.823000",
          "140052.825000",
          "140052.828000",
          "140052.831000",
          "140052.834000",
          "140052.837000",
          "140052.866000",
          "140052.869000",
          "140052.872000",
          "140052.875000",
          "140052.878000",
          "140052.881000",
          "140052.883000",
          "140052.886000",
          "140052.889000",
          "140052.892000",
          "140112.764000",
          "140112.767000",
          "140112.770000",
          "140112.773000",
          "140112.776000",
          "140112.779000",
          "140112.782000",
          "140112.784000",
          "140112.787000",
          "140112.797000",
          "140112.799000",
          "140112.802000",
          "140112.805000",
          "140112.813000",
          "140112.816000",
          "140112.818000",
          "140112.821000",
          "140112.824000",
          "140112.827000",
          "140112.830000",
          "140112.833000",
          "140112.836000",
          "140112.839000",
          "140112.842000",
          "140112.845000",
          "140112.848000",
          "140112.850000",
          "140112.853000",
          "140112.856000",
          "140112.859000",
          "140112.862000",
          "140112.865000",
          "140112.868000",
          "140112.871000",
          "140112.874000",
          "140112.876000",
          "140112.879000",
          "140112.882000",
          "140112.885000",
          "140132.764000",
          "140132.767000",
          "140132.770000",
          "140132.773000",
          "140132.776000",
          "140132.779000",
          "140132.782000",
          "140132.784000",
          "140132.787000",
          "140132.790000",
          "140132.793000",
          "140132.796000",
          "140132.799000",
          "140132.802000",
          "140132.805000",
          "140132.808000",
          "140132.811000",
          "140132.814000",
          "140132.817000",
          "140132.820000",
          "140132.822000",
          "140152.764000",
          "140152.767000",
          "140152.770000",
          "140152.773000",
          "140152.776000",
          "140152.779000",
          "140152.782000",
          "140152.785000",
          "140152.788000",
          "140152.790000",
          "140152.793000",
          "140152.796000",
          "140152.799000",
          "140152.802000",
          "140152.805000",
          "140152.808000",
          "140152.811000",
          "140152.814000",
          "140152.817000",
          "140152.820000",
          "140212.764000",
          "140212.767000",
          "140212.909000",
          "140212.911000",
          "140212.914000",
          "140212.942000",
          "140212.945000",
          "140212.948000",
          "140212.951000",
          "140212.954000",
          "140212.957000",
          "140212.960000",
          "140212.963000",
          "140212.966000",
          "140212.969000",
          "140212.972000",
          "140212.974000",
          "140212.977000",
          "140212.980000",
          "140212.983000",
          "140232.765000",
          "140232.768000",
          "140232.771000",
          "140232.774000",
          "140232.777000",
          "140232.780000",
          "140232.783000",
          "140232.786000",
          "140232.788000",
          "140232.791000",
          "140232.794000",
          "140232.797000",
          "140232.800000",
          "140232.803000",
          "140232.806000",
          "140232.809000",
          "140232.812000",
          "140232.815000",
          "140232.817000",
          "140232.820000",
          "140252.765000",
          "140252.768000",
          "140252.771000",
          "140252.774000",
          "140252.777000",
          "140252.780000",
          "140252.787000",
          "140252.790000",
          "140252.793000",
          "140252.796000",
          "140252.799000",
          "140252.802000",
          "140252.805000",
          "140252.808000",
          "140252.811000",
          "140252.814000",
          "140252.817000",
          "140252.820000",
          "140252.823000",
          "140252.825000",
          "140312.765000",
          "140312.768000",
          "140312.771000",
          "140312.774000",
          "140312.777000",
          "140312.780000",
          "140312.783000",
          "140312.786000",
          "140312.789000",
          "140312.793000",
          "140312.796000",
          "140312.798000",
          "140312.801000",
          "140312.804000",
          "140312.807000",
          "140312.810000",
          "140312.813000",
          "140312.816000",
          "140312.819000",
          "140312.822000",
          "140321.690000",
          "140321.693000",
          "140321.696000",
          "140321.699000",
          "140321.702000",
          "140321.705000",
          "140321.708000",
          "140321.711000",
          "140321.714000"
        ],
        "InstanceCreationTime": [
          "140052.790000",
          "140052.794000",
          "140052.804000",
          "140052.810000",
          "140052.813000",
          "140052.816000",
          "140052.819000",
          "140052.823000",
          "140052.825000",
          "140052.828000",
          "140052.831000",
          "140052.834000",
          "140052.837000",
          "140052.866000",
          "140052.869000",
          "140052.872000",
          "140052.875000",
          "140052.878000",
          "140052.881000",
          "140052.883000",
          "140052.886000",
          "140052.889000",
          "140052.892000",
          "140112.764000",
          "140112.767000",
          "140112.770000",
          "140112.773000",
          "140112.776000",
          "140112.779000",
          "140112.782000",
          "140112.784000",
          "140112.787000",
          "140112.797000",
          "140112.799000",
          "140112.802000",
          "140112.805000",
          "140112.813000",
          "140112.816000",
          "140112.818000",
          "140112.821000",
          "140112.824000",
          "140112.827000",
          "140112.830000",
          "140112.833000",
          "140112.836000",
          "140112.839000",
          "140112.842000",
          "140112.845000",
          "140112.848000",
          "140112.850000",
          "140112.853000",
          "140112.856000",
          "140112.859000",
          "140112.862000",
          "140112.865000",
          "140112.868000",
          "140112.871000",
          "140112.874000",
          "140112.876000",
          "140112.879000",
          "140112.882000",
          "140112.885000",
          "140132.764000",
          "140132.767000",
          "140132.770000",
          "140132.773000",
          "140132.776000",
          "140132.779000",
          "140132.782000",
          "140132.784000",
          "140132.787000",
          "140132.790000",
          "140132.793000",
          "140132.796000",
          "140132.799000",
          "140132.802000",
          "140132.805000",
          "140132.808000",
          "140132.811000",
          "140132.814000",
          "140132.817000",
          "140132.820000",
          "140132.822000",
          "140152.764000",
          "140152.767000",
          "140152.770000",
          "140152.773000",
          "140152.776000",
          "140152.779000",
          "140152.782000",
          "140152.785000",
          "140152.788000",
          "140152.790000",
          "140152.793000",
          "140152.796000",
          "140152.799000",
          "140152.802000",
          "140152.805000",
          "140152.808000",
          "140152.811000",
          "140152.814000",
          "140152.817000",
          "140152.820000",
          "140212.764000",
          "140212.767000",
          "140212.909000",
          "140212.911000",
          "140212.914000",
          "140212.942000",
          "140212.945000",
          "140212.948000",
          "140212.951000",
          "140212.954000",
          "140212.957000",
          "140212.960000",
          "140212.963000",
          "140212.966000",
          "140212.969000",
          "140212.972000",
          "140212.974000",
          "140212.977000",
          "140212.980000",
          "140212.983000",
          "140232.765000",
          "140232.768000",
          "140232.771000",
          "140232.774000",
          "140232.777000",
          "140232.780000",
          "140232.783000",
          "140232.786000",
          "140232.788000",
          "140232.791000",
          "140232.794000",
          "140232.797000",
          "140232.800000",
          "140232.803000",
          "140232.806000",
          "140232.809000",
          "140232.812000",
          "140232.815000",
          "140232.817000",
          "140232.820000",
          "140252.765000",
          "140252.768000",
          "140252.771000",
          "140252.774000",
          "140252.777000",
          "140252.780000",
          "140252.787000",
          "140252.790000",
          "140252.793000",
          "140252.796000",
          "140252.799000",
          "140252.802000",
          "140252.805000",
          "140252.808000",
          "140252.811000",
          "140252.814000",
          "140252.817000",
          "140252.820000",
          "140252.823000",
          "140252.825000",
          "140312.765000",
          "140312.768000",
          "140312.771000",
          "140312.774000",
          "140312.777000",
          "140312.780000",
          "140312.783000",
          "140312.786000",
          "140312.789000",
          "140312.793000",
          "140312.796000",
          "140312.798000",
          "140312.801000",
          "140312.804000",
          "140312.807000",
          "140312.810000",
          "140312.813000",
          "140312.816000",
          "140312.819000",
          "140312.822000",
          "140321.690000",
          "140321.693000",
          "140321.696000",
          "140321.699000",
          "140321.702000",
          "140321.705000",
          "140321.708000",
          "140321.711000",
          "140321.714000"
        ],
        "InstanceNumber": [
          1,
          2,
          3,
          4,
          5,
          6,
          7,
          8,
          9,
          10,
          11,
          12,
          13,
          14,
          15,
          16,
          17,
          18,
          19,
          20,
          21,
          22,
          23,
          24,
          25,
          26,
          27,
          28,
          29,
          30,
          31,
          32,
          33,
          34,
          35,
          36,
          37,
          38,
          39,
          40,
          41,
          42,
          43,
          44,
          45,
          46,
          47,
          48,
          49,
          50,
          51,
          52,
          53,
          54,
          55,
          56,
          57,
          58,
          59,
          60,
          61,
          62,
          63,
          64,
          65,
          66,
          67,
          68,
          69,
          70,
          71,
          72,
          73,
          74,
          75,
          76,
          77,
          78,
          79,
          80,
          81,
          82,
          83,
          84,
          85,
          86,
          87,
          88,
          89,
          90,
          91,
          92,
          93,
          94,
          95,
          96,
          97,
          98,
          99,
          100,
          101,
          102,
          103,
          104,
          105,
          106,
          107,
          108,
          109,
          110,
          111,
          112,
          113,
          114,
          115,
          116,
          117,
          118,
          119,
          120,
          121,
          122,
          123,
          124,
          125,
          126,
          127,
          128,
          129,
          130,
          131,
          132,
          133,
          134,
          135,
          136,
          137,
          138,
          139,
          140,
          141,
          142,
          143,
          144,
          145,
          146,
          147,
          148,
          149,
          150,
          151,
          152,
          153,
          154,
          155,
          156,
          157,
          158,
          159,
          160,
          161,
          162,
          163,
          164,
          165,
          166,
          167,
          168,
          169,
          170,
          171,
          172,
          173,
          174,
          175,
          176,
          177,
          178,
          179,
          180,
          181,
          182,
          183,
          184,
          185,
          186,
          187,
          188,
          189,
          190,
          191,
          192
        ],
        "LargestImagePixelValue": [
          36864,
          35661,
          34987,
          34394,
          34639,
          34511,
          34405,
          34218,
          33677,
          34770,
          33889,
          34322,
          34475,
          34088,
          34350,
          34503,
          34464,
          34113,
          33981,
          33821,
          34469,
          33811,
          34415,
          34396,
          33830,
          34423,
          34302,
          34405,
          34014,
          34435,
          34209,
          34062,
          34237,
          33919,
          33612,
          34202,
          34077,
          33890,
          34314,
          34426,
          34772,
          34091,
          33535,
          33778,
          33992,
          33476,
          33880,
          33639,
          34097,
          34085,
          33769,
          33982,
          33720,
          33408,
          33364,
          33942,
          33307,
          33625,
          34018,
          33395,
          33625,
          33729,
          33537,
          33966,
          34145,
          33177,
          33759,
          34076,
          33566,
          33728,
          34519,
          33577,
          34008,
          33810,
          33359,
          33797,
          34110,
          33604,
          33511,
          33817,
