{
  "aor": 0.0005134391534391534,
  "aqi": 0.005266389523809523,
  "bids_meta": {
    "AcquisitionMatrixPE": 104,
    "AcquisitionNumber": 1,
    "AcquisitionTime": "13:43:21.447500",
    "BandwidthPerPixelPhaseEncode": 16.578,
    "BaseResolution": 104,
    "BodyPartExamined": "BRAIN",
    "CogAtlasID": "TODO",
    "CoilString": "HC2_4_6_7;NC2",
    "ConsistencyInfo": "N4_VE11C_LATEST_20160120",
    "ConversionSoftware": "dcm2niix",
    "ConversionSoftwareVersion": "v1.0.20190902",
    "DerivedVendorReportedEchoSpacing": 0.000580009,
    "DeviceSerialNumber": "166018",
    "DwellTime": 2.1e-06,
    "EchoTime": 0.037,
    "EchoTrainLength": 104,
    "EffectiveEchoSpacing": 0.000580009,
    "FlipAngle": 68,
    "ImageComments": "Unaliased_MB6_PE3_LB",
    "ImageOrientationPatientDICOM": [
      0.99694,
      0.0728965,
      -0.0282351,
      -0.0777606,
      0.961809,
      -0.262444
    ],
    "ImageType": [
      "ORIGINAL",
      "PRIMARY",
      "M",
      "MB",
      "ND",
      "MOSAIC"
    ],
    "ImagingFrequency": 123.191,
    "InPlanePhaseEncodingDirectionDICOM": "COL",
    "InstitutionAddress": "Washington_Place_6_NYC_NYC_US_10003",
    "InstitutionName": "NYU_-_CBI",
    "InstitutionalDepartmentName": "Department",
    "MRAcquisitionType": "2D",
    "MagneticFieldStrength": 3,
    "Manufacturer": "Siemens",
    "ManufacturersModelName": "Prisma",
    "Modality": "MR",
    "MultibandAccelerationFactor": 6,
    "NumberOfVolumes": 192,
    "PartialFourier": 1,
    "PatientPosition": "HFS",
    "PercentPhaseFOV": 100,
    "PhaseEncodingDirection": "j",
    "PhaseEncodingSteps": 104,
    "PhaseResolution": 1,
    "PixelBandwidth": 2290,
    "ProcedureStepDescription": "Investigators_Winawer",
    "ProtocolName": "cmrr_mbepi_s6_2mm_66sl_PA_task-prf",
    "PulseSequenceDetails": "%CustomerSeq%_cmrr_mbep2d_bold",
    "ReceiveCoilActiveElements": "HC2,4,6,7;NC2",
    "ReceiveCoilName": "HeadNeck_64",
    "ReconMatrixPE": 104,
    "RepetitionTime": 1,
    "SAR": 0.077943,
    "ScanOptions": "FS",
    "ScanningSequence": "EP",
    "SequenceName": "epfid2d1_104",
    "SequenceVariant": "SK_SS",
    "SeriesDescription": "cmrr_mbepi_s6_2mm_66sl_PA_task-prf",
    "SeriesNumber": 14,
    "ShimSetting": [
      256,
      -12581,
      -8389,
      323,
      7,
      -52,
      -146,
      -10
    ],
    "SliceThickness": 2,
    "SliceTiming": [
      0,
      0.535,
      0.09,
      0.6225,
      0.1775,
      0.7125,
      0.2675,
      0.8025,
      0.355,
      0.89,
      0.445,
      0,
      0.535,
      0.09,
      0.6225,
      0.1775,
      0.7125,
      0.2675,
      0.8025,
      0.355,
      0.89,
      0.445,
      0,
      0.535,
      0.09,
      0.6225,
      0.1775,
      0.7125,
      0.2675,
      0.8025,
      0.355,
      0.89,
      0.445,
      0,
      0.535,
      0.09,
      0.6225,
      0.1775,
      0.7125,
      0.2675,
      0.8025,
      0.355,
      0.89,
      0.445,
      0,
      0.535,
      0.09,
      0.6225,
      0.1775,
      0.7125,
      0.2675,
      0.8025,
      0.355,
      0.89,
      0.445,
      0,
      0.535,
      0.09,
      0.6225,
      0.1775,
      0.7125,
      0.2675,
      0.8025,
      0.355,
      0.89,
      0.445
    ],
    "SoftwareVersions": "syngo_MR_E11",
    "SpacingBetweenSlices": 2,
    "StationName": "AWP166018",
    "TaskName": "prf",
    "TotalReadoutTime": 0.0597409,
    "TxRefAmp": 258.129,
    "WipMemBlock": "8770aa9a-5d9f-47ad-a0bb-c375f9f61401||Sequence: R016 ve11c/master r/8780670; Nov 27 2017 15:05:12 by eja",
    "acq_id": "PA",
    "dataset": "unknown",
    "dcmmeta_affine": [
      [
        -1.9938795566558838,
        -0.1555212289094925,
        -0.016051094979047775,
        113.23104858398438
      ],
      [
        -0.14579299092292786,
        1.9236178398132324,
        -0.5276731252670288,
        -58.57796096801758
      ],
      [
        -0.056470271199941635,
        0.5248882174491882,
        1.9290679693222046,
        -64.42155456542969
      ],
      [
        0.0,
        0.0,
        0.0,
        1.0
      ]
    ],
    "dcmmeta_reorient_transform": [
      [
        0.0,
        -1.0,
        0.0,
        103.0
      ],
      [
        1.0,
        0.0,
        0.0,
        0.0
      ],
      [
        0.0,
        0.0,
        1.0,
        0.0
      ],
      [
        0.0,
        0.0,
        0.0,
        1.0
      ]
    ],
    "dcmmeta_shape": [
      104,
      104,
      66,
      192
    ],
    "dcmmeta_slice_dim": 2,
    "dcmmeta_version": 0.6,
    "global": {
      "const": {
        "AccessionNumber": "k58k8281",
        "AcquisitionMatrix": [
          104,
          0,
          0,
          104
        ],
        "AngioFlag": "N",
        "BitsAllocated": 16,
        "BitsStored": 16,
        "BodyPartExamined": "BRAIN",
        "Columns": 936,
        "EchoNumbers": 1,
        "EchoTime": 37.0,
        "EchoTrainLength": 104,
        "FlipAngle": 68.0,
        "HighBit": 15,
        "ImageOrientationPatient": [
          0.996939756352,
          0.07289649737074,
          -0.0282351354857,
          -0.077760612073,
          0.96180890561778,
          -0.2624441203082
        ],
        "ImagePositionPatient": [
          -861.96941431181,
          -1000.4295677899,
          231.48707645292
        ],
        "ImageType": [
          "ORIGINAL",
          "PRIMARY",
          "M",
          "MB",
          "ND",
          "MOSAIC"
        ],
        "ImagedNucleus": "1H",
        "ImagingFrequency": 123.190703,
        "InPlanePhaseEncodingDirection": "COL",
        "MRAcquisitionType": "2D",
        "MagneticFieldStrength": 3.0,
        "Manufacturer": "SIEMENS",
        "ManufacturerModelName": "Prisma",
        "Modality": "MR",
        "NumberOfAverages": 1.0,
        "NumberOfPhaseEncodingSteps": 104,
        "PercentPhaseFieldOfView": 100.0,
        "PercentSampling": 100.0,
        "PerformedProcedureStepStartTime": "130943.376000",
        "PhotometricInterpretation": "MONOCHROME2",
        "PixelBandwidth": 2290.0,
        "PixelRepresentation": 0,
        "PixelSpacing": [
          2.0,
          2.0
        ],
        "ProtocolName": "cmrr_mbepi_s6_2mm_66sl_PA_task-prf",
        "RepetitionTime": 1000.0,
        "Rows": 936,
        "SAR": 0.07794298484547,
        "SamplesPerPixel": 1,
        "ScanOptions": "FS",
        "ScanningSequence": "EP",
        "SequenceName": "epfid2d1_104",
        "SequenceVariant": [
          "SK",
          "SS"
        ],
        "SeriesDescription": "cmrr_mbepi_s6_2mm_66sl_PA_task-prf",
        "SeriesNumber": 14,
        "SeriesTime": "134412.935000",
        "SliceLocation": -47.590512414287,
        "SliceThickness": 2.0,
        "SmallestImagePixelValue": 0,
        "SoftwareVersions": "syngo MR E11",
        "SpacingBetweenSlices": 1.9999999761144,
        "SpecificCharacterSet": "ISO_IR 100",
        "StudyID": "1",
        "StudyTime": "130943.263000",
        "TransmitCoilName": "Body",
        "VariableFlipAngleFlag": "N",
        "WindowCenterWidthExplanation": "Algo1",
        "dBdt": 0.0
      },
      "slices": {}
    },
    "modality": "bold",
    "run_id": 4,
    "session_id": "nyu3t01",
    "subject_id": "wlsubj121",
    "task_id": "prf",
    "time": {
      "samples": {
        "AcquisitionNumber": [
          1,
          2,
          3,
          4,
          5,
          6,
          7,
          8,
          9,
          10,
          11,
          12,
          13,
          14,
          15,
          16,
          17,
          18,
          19,
          20,
          21,
          22,
          23,
          24,
          25,
          26,
          27,
          28,
          29,
          30,
          31,
          32,
          33,
          34,
          35,
          36,
          37,
          38,
          39,
          40,
          41,
          42,
          43,
          44,
          45,
          46,
          47,
          48,
          49,
          50,
          51,
          52,
          53,
          54,
          55,
          56,
          57,
          58,
          59,
          60,
          61,
          62,
          63,
          64,
          65,
          66,
          67,
          68,
          69,
          70,
          71,
          72,
          73,
          74,
          75,
          76,
          77,
          78,
          79,
          80,
          81,
          82,
          83,
          84,
          85,
          86,
          87,
          88,
          89,
          90,
          91,
          92,
          93,
          94,
          95,
          96,
          97,
          98,
          99,
          100,
          101,
          102,
          103,
          104,
          105,
          106,
          107,
          108,
          109,
          110,
          111,
          112,
          113,
          114,
          115,
          116,
          117,
          118,
          119,
          120,
          121,
          122,
          123,
          124,
          125,
          126,
          127,
          128,
          129,
          130,
          131,
          132,
          133,
          134,
          135,
          136,
          137,
          138,
          139,
          140,
          141,
          142,
          143,
          144,
          145,
          146,
          147,
          148,
          149,
          150,
          151,
          152,
          153,
          154,
          155,
          156,
          157,
          158,
          159,
          160,
          161,
          162,
          163,
          164,
          165,
          166,
          167,
          168,
          169,
          170,
          171,
          172,
          173,
          174,
          175,
          176,
          177,
          178,
          179,
          180,
          181,
          182,
          183,
          184,
          185,
          186,
          187,
          188,
          189,
          190,
          191,
          192
        ],
        "AcquisitionTime": [
          "134321.447500",
          "134322.447500",
          "134323.447500",
          "134324.447500",
          "134325.447500",
          "134326.447500",
          "134327.447500",
          "134328.447500",
          "134329.447500",
          "134330.447500",
          "134331.447500",
          "134332.447500",
          "134333.447500",
          "134334.447500",
          "134335.447500",
          "134336.447500",
          "134337.447500",
          "134338.447500",
          "134339.447500",
          "134340.447500",
          "134341.447500",
          "134342.447500",
          "134343.447500",
          "134344.447500",
          "134345.447500",
          "134346.447500",
          "134347.447500",
          "134348.447500",
          "134349.447500",
          "134350.447500",
          "134351.447500",
          "134352.447500",
          "134353.447500",
          "134354.447500",
          "134355.447500",
          "134356.447500",
          "134357.447500",
          "134358.447500",
          "134359.447500",
          "134400.447500",
          "134401.447500",
          "134402.447500",
          "134403.447500",
          "134404.447500",
          "134405.447500",
          "134406.447500",
          "134407.447500",
          "134408.447500",
          "134409.447500",
          "134410.447500",
          "134411.447500",
          "134412.447500",
          "134413.447500",
          "134414.447500",
          "134415.447500",
          "134416.447500",
          "134417.447500",
          "134418.447500",
          "134419.447500",
          "134420.447500",
          "134421.447500",
          "134422.447500",
          "134423.447500",
          "134424.447500",
          "134425.447500",
          "134426.447500",
          "134427.447500",
          "134428.447500",
          "134429.447500",
          "134430.447500",
          "134431.447500",
          "134432.447500",
          "134433.447500",
          "134434.447500",
          "134435.447500",
          "134436.447500",
          "134437.447500",
          "134438.447500",
          "134439.447500",
          "134440.447500",
          "134441.447500",
          "134442.447500",
          "134443.447500",
          "134444.447500",
          "134445.447500",
          "134446.447500",
          "134447.447500",
          "134448.447500",
          "134449.447500",
          "134450.447500",
          "134451.447500",
          "134452.447500",
          "134453.447500",
          "134454.447500",
          "134455.447500",
          "134456.447500",
          "134457.447500",
          "134458.447500",
          "134459.447500",
          "134500.447500",
          "134501.447500",
          "134502.447500",
          "134503.447500",
          "134504.447500",
          "134505.447500",
          "134506.447500",
          "134507.447500",
          "134508.447500",
          "134509.447500",
          "134510.447500",
          "134511.447500",
          "134512.447500",
          "134513.447500",
          "134514.447500",
          "134515.447500",
          "134516.447500",
          "134517.447500",
          "134518.447500",
          "134519.447500",
          "134520.447500",
          "134521.447500",
          "134522.447500",
          "134523.447500",
          "134524.447500",
          "134525.447500",
          "134526.447500",
          "134527.447500",
          "134528.447500",
          "134529.447500",
          "134530.447500",
          "134531.447500",
          "134532.447500",
          "134533.447500",
          "134534.447500",
          "134535.447500",
          "134536.447500",
          "134537.447500",
          "134538.447500",
          "134539.447500",
          "134540.447500",
          "134541.447500",
          "134542.447500",
          "134543.447500",
          "134544.447500",
          "134545.447500",
          "134546.447500",
          "134547.447500",
          "134548.447500",
          "134549.447500",
          "134550.447500",
          "134551.447500",
          "134552.447500",
          "134553.447500",
          "134554.447500",
          "134555.447500",
          "134556.447500",
          "134557.447500",
          "134558.447500",
          "134559.447500",
          "134600.447500",
          "134601.447500",
          "134602.447500",
          "134603.447500",
          "134604.447500",
          "134605.447500",
          "134606.447500",
          "134607.447500",
          "134608.447500",
          "134609.447500",
          "134610.447500",
          "134611.447500",
          "134612.447500",
          "134613.447500",
          "134614.447500",
          "134615.447500",
          "134616.447500",
          "134617.447500",
          "134618.447500",
          "134619.447500",
          "134620.447500",
          "134621.447500",
          "134622.447500",
          "134623.447500",
          "134624.447500",
          "134625.447500",
          "134626.447500",
          "134627.447500",
          "134628.447500",
          "134629.447500",
          "134630.447500",
          "134631.447500",
          "134632.447500"
        ],
        "ContentTime": [
          "134412.939000",
          "134412.943000",
          "134412.945000",
          "134412.949000",
          "134412.961000",
          "134412.963000",
          "134412.966000",
          "134412.969000",
          "134412.972000",
          "134412.975000",
          "134412.978000",
          "134412.981000",
          "134412.984000",
          "134412.987000",
          "134412.989000",
          "134413.000000",
          "134413.003000",
          "134413.006000",
          "134413.009000",
          "134413.012000",
          "134413.015000",
          "134413.018000",
          "134413.020000",
          "134413.024000",
          "134413.026000",
          "134413.029000",
          "134413.032000",
          "134413.035000",
          "134413.038000",
          "134413.041000",
          "134413.044000",
          "134413.046000",
          "134432.907000",
          "134432.910000",
          "134432.913000",
          "134432.916000",
          "134432.919000",
          "134432.922000",
          "134432.925000",
          "134432.927000",
          "134432.930000",
          "134432.933000",
          "134432.936000",
          "134432.939000",
          "134432.942000",
          "134432.945000",
          "134432.948000",
          "134432.951000",
          "134432.953000",
          "134432.956000",
          "134432.959000",
          "134432.962000",
          "134432.968000",
          "134432.971000",
          "134432.974000",
          "134432.977000",
          "134432.980000",
          "134432.983000",
          "134432.985000",
          "134432.988000",
          "134432.991000",
          "134432.994000",
          "134432.997000",
          "134433.001000",
          "134433.004000",
          "134433.007000",
          "134433.010000",
          "134433.012000",
          "134433.015000",
          "134433.018000",
          "134452.906000",
          "134452.909000",
          "134452.912000",
          "134452.915000",
          "134452.918000",
          "134452.920000",
          "134452.923000",
          "134452.926000",
          "134452.935000",
          "134452.938000",
          "134452.941000",
          "134452.944000",
          "134452.947000",
          "134452.949000",
          "134452.952000",
          "134452.955000",
          "134452.958000",
          "134452.961000",
          "134452.964000",
          "134452.967000",
          "134452.970000",
          "134512.906000",
          "134512.909000",
          "134512.912000",
          "134512.915000",
          "134512.918000",
          "134512.921000",
          "134512.923000",
          "134512.926000",
          "134512.929000",
          "134512.932000",
          "134512.935000",
          "134512.947000",
          "134512.950000",
          "134512.953000",
          "134512.956000",
          "134512.958000",
          "134512.961000",
          "134512.964000",
          "134512.967000",
          "134512.970000",
          "134532.906000",
          "134532.909000",
          "134532.912000",
          "134532.915000",
          "134532.924000",
          "134532.927000",
          "134532.930000",
          "134532.933000",
          "134532.935000",
          "134532.938000",
          "134532.941000",
          "134532.944000",
          "134532.947000",
          "134532.950000",
          "134532.953000",
          "134532.956000",
          "134532.959000",
          "134532.962000",
          "134532.965000",
          "134532.967000",
          "134552.906000",
          "134552.909000",
          "134552.912000",
          "134552.915000",
          "134552.918000",
          "134552.921000",
          "134552.924000",
          "134552.926000",
          "134552.929000",
          "134552.932000",
          "134552.935000",
          "134552.938000",
          "134552.941000",
          "134552.944000",
          "134552.947000",
          "134552.950000",
          "134552.952000",
          "134552.955000",
          "134552.958000",
          "134552.961000",
          "134612.906000",
          "134612.909000",
          "134612.912000",
          "134612.915000",
          "134612.917000",
          "134612.921000",
          "134612.935000",
          "134612.938000",
          "134612.941000",
          "134612.943000",
          "134612.946000",
          "134612.949000",
          "134612.952000",
          "134612.955000",
          "134612.958000",
          "134612.961000",
          "134612.964000",
          "134612.967000",
          "134612.970000",
          "134612.973000",
          "134632.907000",
          "134632.910000",
          "134632.913000",
          "134632.916000",
          "134632.919000",
          "134632.921000",
          "134632.924000",
          "134632.927000",
          "134632.930000",
          "134632.933000",
          "134632.936000",
          "134632.939000",
          "134632.942000",
          "134632.945000",
          "134632.948000",
          "134632.951000",
          "134632.954000",
          "134632.956000",
          "134632.959000",
          "134632.962000",
          "134633.712000"
        ],
        "InstanceCreationTime": [
          "134412.939000",
          "134412.943000",
          "134412.945000",
          "134412.949000",
          "134412.961000",
          "134412.963000",
          "134412.966000",
          "134412.969000",
          "134412.972000",
          "134412.975000",
          "134412.978000",
          "134412.981000",
          "134412.984000",
          "134412.987000",
          "134412.989000",
          "134413.000000",
          "134413.003000",
          "134413.006000",
          "134413.009000",
          "134413.012000",
          "134413.015000",
          "134413.018000",
          "134413.020000",
          "134413.024000",
          "134413.026000",
          "134413.029000",
          "134413.032000",
          "134413.035000",
          "134413.038000",
          "134413.041000",
          "134413.044000",
          "134413.046000",
          "134432.907000",
          "134432.910000",
          "134432.913000",
          "134432.916000",
          "134432.919000",
          "134432.922000",
          "134432.925000",
          "134432.927000",
          "134432.930000",
          "134432.933000",
          "134432.936000",
          "134432.939000",
          "134432.942000",
          "134432.945000",
          "134432.948000",
          "134432.951000",
          "134432.953000",
          "134432.956000",
          "134432.959000",
          "134432.962000",
          "134432.968000",
          "134432.971000",
          "134432.974000",
          "134432.977000",
          "134432.980000",
          "134432.983000",
          "134432.985000",
          "134432.988000",
          "134432.991000",
          "134432.994000",
          "134432.997000",
          "134433.001000",
          "134433.004000",
          "134433.007000",
          "134433.010000",
          "134433.012000",
          "134433.015000",
          "134433.018000",
          "134452.906000",
          "134452.909000",
          "134452.912000",
          "134452.915000",
          "134452.918000",
          "134452.920000",
          "134452.923000",
          "134452.926000",
          "134452.935000",
          "134452.938000",
          "134452.941000",
          "134452.944000",
          "134452.947000",
          "134452.949000",
          "134452.952000",
          "134452.955000",
          "134452.958000",
          "134452.961000",
          "134452.964000",
          "134452.967000",
          "134452.970000",
          "134512.906000",
          "134512.909000",
          "134512.912000",
          "134512.915000",
          "134512.918000",
          "134512.921000",
          "134512.923000",
          "134512.926000",
          "134512.929000",
          "134512.932000",
          "134512.935000",
          "134512.947000",
          "134512.950000",
          "134512.953000",
          "134512.956000",
          "134512.958000",
          "134512.961000",
          "134512.964000",
          "134512.967000",
          "134512.970000",
          "134532.906000",
          "134532.909000",
          "134532.912000",
          "134532.915000",
          "134532.924000",
          "134532.927000",
          "134532.930000",
          "134532.933000",
          "134532.935000",
          "134532.938000",
          "134532.941000",
          "134532.944000",
          "134532.947000",
          "134532.950000",
          "134532.953000",
          "134532.956000",
          "134532.959000",
          "134532.962000",
          "134532.965000",
          "134532.967000",
          "134552.906000",
          "134552.909000",
          "134552.912000",
          "134552.915000",
          "134552.918000",
          "134552.921000",
          "134552.924000",
          "134552.926000",
          "134552.929000",
          "134552.932000",
          "134552.935000",
          "134552.938000",
          "134552.941000",
          "134552.944000",
          "134552.947000",
          "134552.950000",
          "134552.952000",
          "134552.955000",
          "134552.958000",
          "134552.961000",
          "134612.906000",
          "134612.909000",
          "134612.912000",
          "134612.915000",
          "134612.917000",
          "134612.921000",
          "134612.935000",
          "134612.938000",
          "134612.941000",
          "134612.943000",
          "134612.946000",
          "134612.949000",
          "134612.952000",
          "134612.955000",
          "134612.958000",
          "134612.961000",
          "134612.964000",
          "134612.967000",
          "134612.970000",
          "134612.973000",
          "134632.907000",
          "134632.910000",
          "134632.913000",
          "134632.916000",
          "134632.919000",
          "134632.921000",
          "134632.924000",
          "134632.927000",
          "134632.930000",
          "134632.933000",
          "134632.936000",
          "134632.939000",
          "134632.942000",
          "134632.945000",
          "134632.948000",
          "134632.951000",
          "134632.954000",
          "134632.956000",
          "134632.959000",
          "134632.962000",
          "134633.712000"
        ],
        "InstanceNumber": [
          1,
          2,
          3,
          4,
          5,
          6,
          7,
          8,
          9,
          10,
          11,
          12,
          13,
          14,
          15,
          16,
          17,
          18,
          19,
          20,
          21,
          22,
          23,
          24,
          25,
          26,
          27,
          28,
          29,
          30,
          31,
          32,
          33,
          34,
          35,
          36,
          37,
          38,
          39,
          40,
          41,
          42,
          43,
          44,
          45,
          46,
          47,
          48,
          49,
          50,
          51,
          52,
          53,
          54,
          55,
          56,
          57,
          58,
          59,
          60,
          61,
          62,
          63,
          64,
          65,
          66,
          67,
          68,
          69,
          70,
          71,
          72,
          73,
          74,
          75,
          76,
          77,
          78,
          79,
          80,
          81,
          82,
          83,
          84,
          85,
          86,
          87,
          88,
          89,
          90,
          91,
          92,
          93,
          94,
          95,
          96,
          97,
          98,
          99,
          100,
          101,
          102,
          103,
          104,
          105,
          106,
          107,
          108,
          109,
          110,
          111,
          112,
          113,
          114,
          115,
          116,
          117,
          118,
          119,
          120,
          121,
          122,
          123,
          124,
          125,
          126,
          127,
          128,
          129,
          130,
          131,
          132,
          133,
          134,
          135,
          136,
          137,
          138,
          139,
          140,
          141,
          142,
          143,
          144,
          145,
          146,
          147,
          148,
          149,
          150,
          151,
          152,
          153,
          154,
          155,
          156,
          157,
          158,
          159,
          160,
          161,
          162,
          163,
          164,
          165,
          166,
          167,
          168,
          169,
          170,
          171,
          172,
          173,
          174,
          175,
          176,
          177,
          178,
          179,
          180,
          181,
          182,
          183,
          184,
          185,
          186,
          187,
          188,
          189,
          190,
          191,
          192
        ],
        "LargestImagePixelValue": [
          33385,
          32562,
          32165,
          31769,
          31383,
          31568,
          31302,
          31391,
          31034,
          31400,
          31161,
          31033,
          31253,
          30866,
          31505,
          31257,
          31794,
          31665,
          31422,
          31216,
          31317,
          31135,
          31513,
          30748,
          31083,
          31273,
          31418,
          30962,
          31357,
          31317,
          31808,
          31251,
          31157,
          31129,
          31039,
          31631,
          31581,
          30834,
          31377,
          31347,
          31443,
          31185,
          31339,
          30952,
          31263,
          31504,
          30977,
          31398,
          31477,
          31183,
          30954,
          31603,
          30723,
          31280,
          30950,
          30788,
          31429,
          30859,
          31401,
          31256,
          31050,
          30982,
          31389,
          30890,
          31339,
          31278,
          31283,
          31653,
          31396,
          30927,
          31441,
          31197,
          31249,
          31149,
          31470,
          31021,
          31553,
          31320,
          31602,
          31259,
