{
  "AcquisitionMatrixPE": 104,
  "AcquisitionNumber": 1,
  "AcquisitionTime": "10:36:28.475000",
  "BandwidthPerPixelPhaseEncode": 16.578,
  "BaseResolution": 104,
  "BodyPartExamined": "BRAIN",
  "ConsistencyInfo": "N4_VE11C_LATEST_20160120",
  "ConversionSoftware": "dcm2niix",
  "ConversionSoftwareVersion": "v1.0.20190902",
  "DerivedVendorReportedEchoSpacing": 0.000580009,
  "DeviceSerialNumber": "166018",
  "DwellTime": 2.1e-06,
  "EchoTime": 0.037,
  "EchoTrainLength": 104,
  "EffectiveEchoSpacing": 0.000580009,
  "FlipAngle": 68,
  "ImageComments": "Unaliased_MB6_PE3_LB",
  "ImageOrientationPatientDICOM": [0.993289, 0.109598, 0.036937, -0.0956429, 0.957967, -0.270464],
  "ImageType": [
    "ORIGINAL",
    "PRIMARY",
    "M",
    "MB",
    "ND",
    "MOSAIC"
],
  "ImagingFrequency": 123.191,
  "InPlanePhaseEncodingDirectionDICOM": "COL",
  "InstitutionAddress": "Washington_Place_6_NYC_NYC_US_10003",
  "InstitutionName": "NYU_-_CBI",
  "InstitutionalDepartmentName": "Department",
  "MRAcquisitionType": "2D",
  "MagneticFieldStrength": 3,
  "Manufacturer": "Siemens",
  "ManufacturersModelName": "Prisma",
  "Modality": "MR",
  "MultibandAccelerationFactor": 6,
  "PartialFourier": 1,
  "PatientPosition": "HFS",
  "PercentPhaseFOV": 100,
  "PhaseEncodingDirection": "j",
  "PhaseEncodingSteps": 104,
  "PhaseResolution": 1,
  "PixelBandwidth": 2290,
  "ProcedureStepDescription": "Investigators_Winawer",
  "ProtocolName": "cmrr_mbepi_s6_2mm_66sl_PA_task-prf",
  "PulseSequenceDetails": "%CustomerSeq%_cmrr_mbep2d_bold",
  "ReceiveCoilActiveElements": "HC1-7",
  "ReceiveCoilName": "HeadNeck_64",
  "ReconMatrixPE": 104,
  "RepetitionTime": 1,
  "SAR": 0.062376,
  "ScanOptions": "FS",
  "ScanningSequence": "EP",
  "SequenceName": "epfid2d1_104",
  "SequenceVariant": "SK_SS",
  "SeriesDescription": "cmrr_mbepi_s6_2mm_66sl_PA_task-prf",
  "SeriesNumber": 14,
  "ShimSetting": [272, -12573, -8445, 481, -12, -101, -67, -2],
  "SliceThickness": 2,
  "SliceTiming": [0, 0.5325, 0.0875, 0.6225, 0.1775, 0.7125, 0.265, 0.8, 0.355, 0.89, 0.445, 0, 0.5325, 0.0875, 0.6225, 0.1775, 0.7125, 0.265, 0.8, 0.355, 0.89, 0.445, 0, 0.5325, 0.0875, 0.6225, 0.1775, 0.7125, 0.265, 0.8, 0.355, 0.89, 0.445, 0, 0.5325, 0.0875, 0.6225, 0.1775, 0.7125, 0.265, 0.8, 0.355, 0.89, 0.445, 0, 0.5325, 0.0875, 0.6225, 0.1775, 0.7125, 0.265, 0.8, 0.355, 0.89, 0.445, 0, 0.5325, 0.0875, 0.6225, 0.1775, 0.7125, 0.265, 0.8, 0.355, 0.89, 0.445],
  "SoftwareVersions": "syngo_MR_E11",
  "SpacingBetweenSlices": 2,
  "StationName": "AWP166018",
  "TaskName": "prf",
  "TotalReadoutTime": 0.0597409,
  "TxRefAmp": 207.746,
  "WipMemBlock": "a6a7f098-c453-4aa7-b3b4-6b6e67c4d097||Sequence: R016 ve11c/master r/8780670; Nov 27 2017 15:05:12 by eja",
  "dcmmeta_affine": [
    [-1.9865789413452148, -0.19128571450710297, 0.13005344569683075, 119.66618347167969],
    [-0.21919570863246918, 1.9159349203109741, -0.5302327871322632, -47.2097282409668],
    [0.07387398928403854, 0.5409281849861145, 1.9240424633026123, -72.72578430175781],
    [0.0, 0.0, 0.0, 1.0]
],
  "dcmmeta_reorient_transform": [
    [0.0, -1.0, 0.0, 103.0],
    [1.0, 0.0, 0.0, 0.0],
    [0.0, 0.0, 1.0, 0.0],
    [0.0, 0.0, 0.0, 1.0]
],
  "dcmmeta_shape": [104, 104, 66, 192],
  "dcmmeta_slice_dim": 2,
  "dcmmeta_version": 0.6,
  "global": {
    "const": {
      "AccessionNumber": "JUK00BTQ",
      "AcquisitionMatrix": [104, 0, 0, 104],
      "AngioFlag": "N",
      "BitsAllocated": 16,
      "BitsStored": 16,
      "BodyPartExamined": "BRAIN",
      "Columns": 936,
      "EchoNumbers": 1,
      "EchoTime": 37.0,
      "EchoTrainLength": 104,
      "FlipAngle": 68.0,
      "HighBit": 15,
      "ImageOrientationPatient": [0.99328946855882, 0.10959785617072, 0.03693699463853, -0.0956428608861, 0.957967438371, -0.2704641014672],
      "ImagePositionPatient": [-846.80573146119, -1038.3458901661, 177.28437110658],
      "ImageType": [
        "ORIGINAL",
        "PRIMARY",
        "M",
        "MB",
        "ND",
        "MOSAIC"
],
      "ImagedNucleus": "1H",
      "ImagingFrequency": 123.191019,
      "InPlanePhaseEncodingDirection": "COL",
      "MRAcquisitionType": "2D",
      "MagneticFieldStrength": 3.0,
      "Manufacturer": "SIEMENS",
      "ManufacturerModelName": "Prisma",
      "Modality": "MR",
      "NumberOfAverages": 1.0,
      "NumberOfPhaseEncodingSteps": 104,
      "PercentPhaseFieldOfView": 100.0,
      "PercentSampling": 100.0,
      "PerformedProcedureStepStartTime": "101139.639000",
      "PhotometricInterpretation": "MONOCHROME2",
      "PixelBandwidth": 2290.0,
      "PixelRepresentation": 0,
      "PixelSpacing": [2.0, 2.0],
      "ProtocolName": "cmrr_mbepi_s6_2mm_66sl_PA_task-prf",
      "RepetitionTime": 1000.0,
      "Rows": 936,
      "SAR": 0.06237597445712,
      "SamplesPerPixel": 1,
      "ScanOptions": "FS",
      "ScanningSequence": "EP",
      "SequenceName": "epfid2d1_104",
      "SequenceVariant": [
        "SK",
        "SS"
],
      "SeriesDescription": "cmrr_mbepi_s6_2mm_66sl_PA_task-prf",
      "SeriesNumber": 14,
      "SeriesTime": "103728.333000",
      "SliceLocation": -49.666178043029,
      "SliceThickness": 2.0,
      "SmallestImagePixelValue": 0,
      "SoftwareVersions": "syngo MR E11",
      "SpacingBetweenSlices": 2.0000000699906,
      "SpecificCharacterSet": "ISO_IR 100",
      "StudyID": "1",
      "StudyTime": "101139.529000",
      "TransmitCoilName": "Body",
      "VariableFlipAngleFlag": "N",
      "WindowCenterWidthExplanation": "Algo1",
      "dBdt": 0.0},
    "slices": {}
  },
  "time": {
    "samples": {
      "AcquisitionNumber": [1, 2, 3, 4, 5, 6, 7, 8, 9, 10, 11, 12, 13, 14, 15, 16, 17, 18, 19, 20, 21, 22, 23, 24, 25, 26, 27, 28, 29, 30, 31, 32, 33, 34, 35, 36, 37, 38, 39, 40, 41, 42, 43, 44, 45, 46, 47, 48, 49, 50, 51, 52, 53, 54, 55, 56, 57, 58, 59, 60, 61, 62, 63, 64, 65, 66, 67, 68, 69, 70, 71, 72, 73, 74, 75, 76, 77, 78, 79, 80, 81, 82, 83, 84, 85, 86, 87, 88, 89, 90, 91, 92, 93, 94, 95, 96, 97, 98, 99, 100, 101, 102, 103, 104, 105, 106, 107, 108, 109, 110, 111, 112, 113, 114, 115, 116, 117, 118, 119, 120, 121, 122, 123, 124, 125, 126, 127, 128, 129, 130, 131, 132, 133, 134, 135, 136, 137, 138, 139, 140, 141, 142, 143, 144, 145, 146, 147, 148, 149, 150, 151, 152, 153, 154, 155, 156, 157, 158, 159, 160, 161, 162, 163, 164, 165, 166, 167, 168, 169, 170, 171, 172, 173, 174, 175, 176, 177, 178, 179, 180, 181, 182, 183, 184, 185, 186, 187, 188, 189, 190, 191, 192],
      "AcquisitionTime": ["103628.475000", "103629.475000", "103630.475000", "103631.475000", "103632.475000", "103633.475000", "103634.475000", "103635.475000", "103636.475000", "103637.475000", "103638.475000", "103639.475000", "103640.475000", "103641.475000", "103642.475000", "103643.475000", "103644.475000", "103645.475000", "103646.475000", "103647.475000", "103648.475000", "103649.475000", "103650.475000", "103651.475000", "103652.475000", "103653.475000", "103654.475000", "103655.475000", "103656.475000", "103657.475000", "103658.475000", "103659.475000", "103700.475000", "103701.475000", "103702.475000", "103703.475000", "103704.475000", "103705.475000", "103706.475000", "103707.475000", "103708.475000", "103709.475000", "103710.475000", "103711.475000", "103712.475000", "103713.475000", "103714.475000", "103715.475000", "103716.475000", "103717.475000", "103718.475000", "103719.475000", "103720.475000", "103721.475000", "103722.475000", "103723.475000", "103724.475000", "103725.475000", "103726.475000", "103727.475000", "103728.475000", "103729.475000", "103730.475000", "103731.475000", "103732.475000", "103733.475000", "103734.475000", "103735.475000", "103736.475000", "103737.475000", "103738.475000", "103739.475000", "103740.475000", "103741.475000", "103742.475000", "103743.475000", "103744.475000", "103745.475000", "103746.475000", "103747.475000", "103748.475000", "103749.475000", "103750.475000", "103751.475000", "103752.475000", "103753.475000", "103754.475000", "103755.475000", "103756.475000", "103757.475000", "103758.475000", "103759.475000", "103800.475000", "103801.475000", "103802.475000", "103803.475000", "103804.475000", "103805.475000", "103806.475000", "103807.475000", "103808.475000", "103809.475000", "103810.475000", "103811.475000", "103812.475000", "103813.475000", "103814.475000", "103815.475000", "103816.475000", "103817.475000", "103818.475000", "103819.475000", "103820.475000", "103821.475000", "103822.475000", "103823.475000", "103824.475000", "103825.475000", "103826.475000", "103827.475000", "103828.475000", "103829.475000", "103830.475000", "103831.475000", "103832.475000", "103833.475000", "103834.475000", "103835.475000", "103836.475000", "103837.475000", "103838.475000", "103839.475000", "103840.475000", "103841.475000", "103842.475000", "103843.475000", "103844.475000", "103845.475000", "103846.475000", "103847.475000", "103848.475000", "103849.475000", "103850.475000", "103851.475000", "103852.475000", "103853.475000", "103854.475000", "103855.475000", "103856.475000", "103857.475000", "103858.475000", "103859.475000", "103900.475000", "103901.475000", "103902.475000", "103903.475000", "103904.475000", "103905.475000", "103906.475000", "103907.475000", "103908.475000", "103909.475000", "103910.475000", "103911.475000", "103912.475000", "103913.475000", "103914.475000", "103915.475000", "103916.475000", "103917.475000", "103918.475000", "103919.475000", "103920.475000", "103921.475000", "103922.475000", "103923.475000", "103924.475000", "103925.475000", "103926.475000", "103927.475000", "103928.475000", "103929.475000", "103930.475000", "103931.475000", "103932.475000", "103933.475000", "103934.475000", "103935.475000", "103936.475000", "103937.475000", "103938.475000", "103939.475000"],
      "ContentTime": ["103728.336000", "103728.347000", "103728.350000", "103728.353000", "103728.356000", "103728.359000", "103728.362000", "103733.334000", "103733.344000", "103733.350000", "103733.352000", "103733.356000", "103733.359000", "103733.362000", "103738.334000", "103738.337000", "103738.340000", "103738.353000", "103738.356000", "103738.359000", "103738.361000", "103743.335000", "103743.338000", "103743.341000", "103743.344000", "103743.347000", "103743.350000", "103743.353000", "103748.334000", "103748.337000", "103748.340000", "103748.343000", "103748.346000", "103748.349000", "103748.352000", "103753.334000", "103753.337000", "103753.340000", "103753.353000", "103753.356000", "103753.359000", "103753.362000", "103758.334000", "103758.337000", "103758.340000", "103758.343000", "103758.346000", "103758.349000", "103758.352000", "103803.334000", "103803.337000", "103803.340000", "103803.343000", "103803.346000", "103803.349000", "103803.352000", "103808.334000", "103808.337000", "103808.340000", "103808.344000", "103808.347000", "103808.350000", "103808.353000", "103813.334000", "103813.337000", "103813.340000", "103813.343000", "103813.346000", "103813.355000", "103813.358000", "103813.361000", "103818.335000", "103818.338000", "103818.341000", "103818.344000", "103818.347000", "103818.350000", "103818.353000", "103823.334000", "103823.337000", "103823.340000", "103823.343000", "103823.346000", "103823.349000", "103823.352000", "103828.334000", "103828.337000", "103828.340000", "103828.343000", "103828.346000", "103828.349000", "103828.352000", "103833.334000", "103833.337000", "103833.340000", "103833.343000", "103833.346000", "103833.349000", "103833.352000", "103838.335000", "103838.339000", "103838.342000", "103838.345000", "103838.348000", "103838.351000", "103838.354000", "103843.334000", "103843.337000", "103843.340000", "103843.343000", "103843.346000", "103843.349000", "103843.352000", "103848.334000", "103848.337000", "103848.340000", "103848.343000", "103848.346000", "103848.358000", "103848.361000", "103853.335000", "103853.338000", "103853.341000", "103853.344000", "103853.347000", "103853.350000", "103853.353000", "103858.334000", "103858.337000", "103858.340000", "103858.343000", "103858.354000", "103858.357000", "103858.360000", "103903.334000", "103903.337000", "103903.340000", "103903.343000", "103903.346000", "103903.349000", "103903.352000", "103908.334000", "103908.337000", "103908.340000", "103908.343000", "103908.346000", "103908.349000", "103908.352000", "103913.334000", "103913.337000", "103913.340000", "103913.343000", "103913.346000", "103913.349000", "103913.352000", "103918.334000", "103918.337000", "103918.340000", "103918.343000", "103918.346000", "103918.349000", "103918.352000", "103923.334000", "103923.346000", "103923.349000", "103923.352000", "103923.355000", "103923.358000", "103923.361000", "103928.335000", "103928.338000", "103928.341000", "103928.356000", "103928.359000", "103928.362000", "103928.365000", "103928.368000", "103933.334000", "103933.337000", "103933.340000", "103933.343000", "103933.346000", "103933.349000", "103933.352000", "103938.334000", "103938.337000", "103938.340000", "103938.343000", "103938.346000", "103940.706000", "103940.710000", "103940.714000"],
      "InstanceCreationTime": ["103728.336000", "103728.347000", "103728.350000", "103728.353000", "103728.356000", "103728.359000", "103728.362000", "103733.334000", "103733.344000", "103733.350000", "103733.352000", "103733.356000", "103733.359000", "103733.362000", "103738.334000", "103738.337000", "103738.340000", "103738.353000", "103738.356000", "103738.359000", "103738.361000", "103743.335000", "103743.338000", "103743.341000", "103743.344000", "103743.347000", "103743.350000", "103743.353000", "103748.334000", "103748.337000", "103748.340000", "103748.343000", "103748.346000", "103748.349000", "103748.352000", "103753.334000", "103753.337000", "103753.340000", "103753.353000", "103753.356000", "103753.359000", "103753.362000", "103758.334000", "103758.337000", "103758.340000", "103758.343000", "103758.346000", "103758.349000", "103758.352000", "103803.334000", "103803.337000", "103803.340000", "103803.343000", "103803.346000", "103803.349000", "103803.352000", "103808.334000", "103808.337000", "103808.340000", "103808.344000", "103808.347000", "103808.350000", "103808.353000", "103813.334000", "103813.337000", "103813.340000", "103813.343000", "103813.346000", "103813.355000", "103813.358000", "103813.361000", "103818.335000", "103818.338000", "103818.341000", "103818.344000", "103818.347000", "103818.350000", "103818.353000", "103823.334000", "103823.337000", "103823.340000", "103823.343000", "103823.346000", "103823.349000", "103823.352000", "103828.334000", "103828.337000", "103828.340000", "103828.343000", "103828.346000", "103828.349000", "103828.352000", "103833.334000", "103833.337000", "103833.340000", "103833.343000", "103833.346000", "103833.349000", "103833.352000", "103838.335000", "103838.339000", "103838.342000", "103838.345000", "103838.348000", "103838.351000", "103838.354000", "103843.334000", "103843.337000", "103843.340000", "103843.343000", "103843.346000", "103843.349000", "103843.352000", "103848.334000", "103848.337000", "103848.340000", "103848.343000", "103848.346000", "103848.358000", "103848.361000", "103853.335000", "103853.338000", "103853.341000", "103853.344000", "103853.347000", "103853.350000", "103853.353000", "103858.334000", "103858.337000", "103858.340000", "103858.343000", "103858.354000", "103858.357000", "103858.360000", "103903.334000", "103903.337000", "103903.340000", "103903.343000", "103903.346000", "103903.349000", "103903.352000", "103908.334000", "103908.337000", "103908.340000", "103908.343000", "103908.346000", "103908.349000", "103908.352000", "103913.334000", "103913.337000", "103913.340000", "103913.343000", "103913.346000", "103913.349000", "103913.352000", "103918.334000", "103918.337000", "103918.340000", "103918.343000", "103918.346000", "103918.349000", "103918.352000", "103923.334000", "103923.346000", "103923.349000", "103923.352000", "103923.355000", "103923.358000", "103923.361000", "103928.335000", "103928.338000", "103928.341000", "103928.356000", "103928.359000", "103928.362000", "103928.365000", "103928.368000", "103933.334000", "103933.337000", "103933.340000", "103933.343000", "103933.346000", "103933.349000", "103933.352000", "103938.334000", "103938.337000", "103938.340000", "103938.343000", "103938.346000", "103940.706000", "103940.710000", "103940.714000"],
      "InstanceNumber": [1, 2, 3, 4, 5, 6, 7, 8, 9, 10, 11, 12, 13, 14, 15, 16, 17, 18, 19, 20, 21, 22, 23, 24, 25, 26, 27, 28, 29, 30, 31, 32, 33, 34, 35, 36, 37, 38, 39, 40, 41, 42, 43, 44, 45, 46, 47, 48, 49, 50, 51, 52, 53, 54, 55, 56, 57, 58, 59, 60, 61, 62, 63, 64, 65, 66, 67, 68, 69, 70, 71, 72, 73, 74, 75, 76, 77, 78, 79, 80, 81, 82, 83, 84, 85, 86, 87, 88, 89, 90, 91, 92, 93, 94, 95, 96, 97, 98, 99, 100, 101, 102, 103, 104, 105, 106, 107, 108, 109, 110, 111, 112, 113, 114, 115, 116, 117, 118, 119, 120, 121, 122, 123, 124, 125, 126, 127, 128, 129, 130, 131, 132, 133, 134, 135, 136, 137, 138, 139, 140, 141, 142, 143, 144, 145, 146, 147, 148, 149, 150, 151, 152, 153, 154, 155, 156, 157, 158, 159, 160, 161, 162, 163, 164, 165, 166, 167, 168, 169, 170, 171, 172, 173, 174, 175, 176, 177, 178, 179, 180, 181, 182, 183, 184, 185, 186, 187, 188, 189, 190, 191, 192],
      "LargestImagePixelValue": [42040, 40799, 40059, 39406, 39236, 38798, 39306, 38960, 39286, 39298, 39229, 39304, 39165, 38658, 38830, 39082, 39240, 39301, 38622, 39328, 39427, 39580, 39693, 39258, 39278, 39170, 39091, 39003, 38802, 38976, 39184, 39205, 39761, 39551, 39292, 39835, 39676, 39136, 39634, 39917, 38937, 39145, 39517, 39661, 39473, 39832, 39663, 40106, 39704, 39694, 39507, 39361, 39540, 39338, 39386, 39098, 39651, 39738, 39782, 39525, 39859, 39072, 39336, 38774, 39515, 39348, 39648, 39349, 39541, 40102, 40245, 40078, 39253, 39248, 39577, 39718, 39392, 39403, 39654, 39931, 39146, 39646, 39878, 39326, 39265, 39544, 39950, 38875, 38595, 39427, 39061, 38953, 38785, 39829, 39828, 39192, 39569, 39795, 38838, 39494, 39903, 39494, 39681, 39458, 39925, 40306, 39091, 39038, 39506, 38884, 39594, 39794, 39394, 39658, 40077, 38923, 39235, 39701, 39075, 39624, 39589, 39211, 39338, 39847, 39713, 38543, 38904, 39174, 39328, 39224, 39433, 39461, 38937, 39407, 39896, 39149, 39153, 39333, 39717, 38699, 38869, 39494, 39051, 39585, 39606, 39151, 39302, 39960, 39256, 37813, 38335, 38753, 38866, 39028, 38880, 39221, 38798, 38612, 39452, 38771, 39075, 39007, 38631, 39001, 39499, 39558, 37664, 37717, 38135, 38942, 38531, 38725, 39020, 38859, 38721, 38005, 38636, 38531, 37953, 38565, 38346, 38448, 38397, 39278, 38871, 38117, 38666, 38341, 38840, 38248, 38733, 38912],
      "WindowCenter": [9478.0, 9453.0, 9439.0, 9438.0, 9432.0, 9426.0, 9424.0, 9415.0, 9411.0, 9411.0, 9411.0, 9411.0, 9405.0, 9398.0, 9397.0, 9403.0, 9411.0, 9418.0, 9414.0, 9427.0, 9429.0, 9435.0, 9428.0, 9421.0, 9420.0, 9414.0, 9413.0, 9411.0, 9403.0, 9403.0, 9404.0, 9411.0, 9422.0, 9417.0, 9417.0, 9416.0, 9416.0, 9408.0, 9407.0, 9415.0, 9402.0, 9410.0, 9411.0, 9418.0, 9410.0, 9417.0, 9415.0, 9413.0, 9409.0, 9409.0, 9401.0, 9407.0, 9400.0, 9391.0, 9385.0, 9392.0, 9399.0, 9415.0, 9423.0, 9424.0, 9424.0, 9404.0, 9408.0, 9403.0, 9415.0, 9416.0, 9416.0, 9409.0, 9415.0, 9417.0, 9415.0, 9416.0, 9410.0, 9409.0, 9408.0, 9409.0, 9402.0, 9410.0, 9418.0, 9425.0, 9411.0, 9416.0, 9414.0, 9406.0, 9405.0, 9412.0, 9420.0, 9402.0, 9395.0, 9399.0, 9385.0, 9383.0, 9374.0, 9380.0, 9388.0, 9376.0, 9382.0, 9383.0, 9385.0, 9392.0, 9405.0, 9401.0, 9407.0, 9401.0, 9407.0, 9420.0, 9410.0, 9410.0, 9410.0, 9403.0, 9400.0, 9399.0, 9400.0, 9407.0, 9421.0, 9411.0, 9418.0, 9428.0, 9424.0, 9430.0, 9430.0, 9421.0, 9413.0, 9417.0, 9416.0, 9391.0, 9404.0, 9404.0, 9403.0, 9402.0, 9408.0, 9401.0, 9395.0, 9394.0, 9399.0, 9394.0, 9404.0, 9420.0, 9430.0, 9419.0, 9415.0, 9419.0, 9390.0, 9391.0, 9382.0, 9369.0, 9382.0, 9397.0, 9400.0, 9376.0, 9383.0, 9388.0, 9387.0, 9387.0, 9393.0, 9400.0, 9394.0, 9393.0, 9399.0, 9395.0, 9403.0, 9404.0, 9405.0, 9412.0, 9420.0, 9420.0, 9409.0, 9404.0, 9395.0, 9398.0, 9391.0, 9397.0, 9397.0, 9389.0, 9381.0, 9373.0, 9378.0, 9371.0, 9364.0, 9376.0, 9372.0, 9381.0, 9395.0, 9402.0, 9394.0, 9382.0, 9381.0, 9380.0, 9386.0, 9381.0, 9387.0, 9387.0],
      "WindowWidth": [20154.0, 20093.0, 20058.0, 20055.0, 20041.0, 20033.0, 20022.0, 20001.0, 19994.0, 19991.0, 19991.0, 19989.0, 19978.0, 19964.0, 19964.0, 19974.0, 19991.0, 20005.0, 20002.0, 20028.0, 20030.0, 20040.0, 20027.0, 20013.0, 20011.0, 20003.0, 19996.0, 19989.0, 19973.0, 19973.0, 19979.0, 19991.0, 20010.0, 20000.0, 20001.0, 19997.0, 19997.0, 19981.0, 19982.0, 19994.0, 19974.0, 19992.0, 19995.0, 20006.0, 19987.0, 19999.0, 19994.0, 19989.0, 19986.0, 19985.0, 19968.0, 19978.0, 19962.0, 19941.0, 19932.0, 19946.0, 19962.0, 19996.0, 20014.0, 20017.0, 20016.0, 19975.0, 19981.0, 19975.0, 19997.0, 19996.0, 20000.0, 19986.0, 20000.0, 20004.0, 20000.0, 20001.0, 19989.0, 19984.0, 19982.0, 19985.0, 19974.0, 19991.0, 20008.0, 20020.0, 19994.0, 20001.0, 19989.0, 19971.0, 19972.0, 19988.0, 20003.0, 19970.0, 19954.0, 19960.0, 19933.0, 19926.0, 19909.0, 19918.0, 19936.0, 19915.0, 19928.0, 19930.0, 19935.0, 19950.0, 19975.0, 19970.0, 19984.0, 19970.0, 19978.0, 20002.0, 19985.0, 19985.0, 19984.0, 19973.0, 19964.0, 19960.0, 19962.0, 19976.0, 20006.0, 19991.0, 20008.0, 20030.0, 20027.0, 20036.0, 20035.0, 20014.0, 19996.0, 19998.0, 19994.0, 19950.0, 19974.0, 19977.0, 19972.0, 19969.0, 19984.0, 19970.0, 19960.0, 19955.0, 19962.0, 19956.0, 19978.0, 20012.0, 20036.0, 20015.0, 20003.0, 20004.0, 19943.0, 19941.0, 19922.0, 19901.0, 19926.0, 19958.0, 19966.0, 19927.0, 19943.0, 19947.0, 19943.0, 19936.0, 19948.0, 19961.0, 19951.0, 19950.0, 19962.0, 19955.0, 19974.0, 19978.0, 19983.0, 20000.0, 20015.0, 20009.0, 19995.0, 19985.0, 19963.0, 19962.0, 19949.0, 19965.0, 19966.0, 19948.0, 19932.0, 19914.0, 19923.0, 19905.0, 19893.0, 19912.0, 19911.0, 19930.0, 19958.0, 19968.0, 19949.0, 19934.0, 19928.0, 19926.0, 19936.0, 19930.0, 19940.0, 19940.0]
    },
    "slices": {}
  },
  "NumberOfVolumes": 192
}