{
  "AcquisitionMatrixPE": 104,
  "AcquisitionNumber": 1,
  "AcquisitionTime": "10:28:37.450000",
  "BandwidthPerPixelPhaseEncode": 16.578,
  "BaseResolution": 104,
  "BodyPartExamined": "BRAIN",
  "ConsistencyInfo": "N4_VE11C_LATEST_20160120",
  "ConversionSoftware": "dcm2niix",
  "ConversionSoftwareVersion": "v1.0.20190902",
  "DerivedVendorReportedEchoSpacing": 0.000580009,
  "DeviceSerialNumber": "166018",
  "DwellTime": 2.1e-06,
  "EchoTime": 0.037,
  "EchoTrainLength": 104,
  "EffectiveEchoSpacing": 0.000580009,
  "FlipAngle": 68,
  "ImageComments": "Unaliased_MB6_PE3_LB",
  "ImageOrientationPatientDICOM": [0.993289, 0.109598, 0.036937, -0.0956429, 0.957967, -0.270464],
  "ImageType": [
    "ORIGINAL",
    "PRIMARY",
    "M",
    "MB",
    "ND",
    "MOSAIC"
],
  "ImagingFrequency": 123.191,
  "InPlanePhaseEncodingDirectionDICOM": "COL",
  "InstitutionAddress": "Washington_Place_6_NYC_NYC_US_10003",
  "InstitutionName": "NYU_-_CBI",
  "InstitutionalDepartmentName": "Department",
  "MRAcquisitionType": "2D",
  "MagneticFieldStrength": 3,
  "Manufacturer": "Siemens",
  "ManufacturersModelName": "Prisma",
  "Modality": "MR",
  "MultibandAccelerationFactor": 6,
  "PartialFourier": 1,
  "PatientPosition": "HFS",
  "PercentPhaseFOV": 100,
  "PhaseEncodingDirection": "j",
  "PhaseEncodingSteps": 104,
  "PhaseResolution": 1,
  "PixelBandwidth": 2290,
  "ProcedureStepDescription": "Investigators_Winawer",
  "ProtocolName": "cmrr_mbepi_s6_2mm_66sl_PA_task-prf",
  "PulseSequenceDetails": "%CustomerSeq%_cmrr_mbep2d_bold",
  "ReceiveCoilActiveElements": "HC1-7",
  "ReceiveCoilName": "HeadNeck_64",
  "ReconMatrixPE": 104,
  "RepetitionTime": 1,
  "SAR": 0.062376,
  "ScanOptions": "FS",
  "ScanningSequence": "EP",
  "SequenceName": "epfid2d1_104",
  "SequenceVariant": "SK_SS",
  "SeriesDescription": "cmrr_mbepi_s6_2mm_66sl_PA_task-prf",
  "SeriesNumber": 10,
  "ShimSetting": [272, -12573, -8445, 481, -12, -101, -67, -2],
  "SliceThickness": 2,
  "SliceTiming": [0, 0.535, 0.0875, 0.6225, 0.1775, 0.7125, 0.2675, 0.8, 0.355, 0.89, 0.445, 0, 0.535, 0.0875, 0.6225, 0.1775, 0.7125, 0.2675, 0.8, 0.355, 0.89, 0.445, 0, 0.535, 0.0875, 0.6225, 0.1775, 0.7125, 0.2675, 0.8, 0.355, 0.89, 0.445, 0, 0.535, 0.0875, 0.6225, 0.1775, 0.7125, 0.2675, 0.8, 0.355, 0.89, 0.445, 0, 0.535, 0.0875, 0.6225, 0.1775, 0.7125, 0.2675, 0.8, 0.355, 0.89, 0.445, 0, 0.535, 0.0875, 0.6225, 0.1775, 0.7125, 0.2675, 0.8, 0.355, 0.89, 0.445],
  "SoftwareVersions": "syngo_MR_E11",
  "SpacingBetweenSlices": 2,
  "StationName": "AWP166018",
  "TaskName": "prf",
  "TotalReadoutTime": 0.0597409,
  "TxRefAmp": 207.746,
  "WipMemBlock": "a6a7f098-c453-4aa7-b3b4-6b6e67c4d097||Sequence: R016 ve11c/master r/8780670; Nov 27 2017 15:05:12 by eja",
  "dcmmeta_affine": [
    [-1.9865789413452148, -0.19128571450710297, 0.13005344569683075, 119.66618347167969],
    [-0.21919570863246918, 1.9159349203109741, -0.5302327871322632, -47.2097282409668],
    [0.07387398928403854, 0.5409281849861145, 1.9240424633026123, -72.72578430175781],
    [0.0, 0.0, 0.0, 1.0]
],
  "dcmmeta_reorient_transform": [
    [0.0, -1.0, 0.0, 103.0],
    [1.0, 0.0, 0.0, 0.0],
    [0.0, 0.0, 1.0, 0.0],
    [0.0, 0.0, 0.0, 1.0]
],
  "dcmmeta_shape": [104, 104, 66, 192],
  "dcmmeta_slice_dim": 2,
  "dcmmeta_version": 0.6,
  "global": {
    "const": {
      "AccessionNumber": "JUK00BTQ",
      "AcquisitionMatrix": [104, 0, 0, 104],
      "AngioFlag": "N",
      "BitsAllocated": 16,
      "BitsStored": 16,
      "BodyPartExamined": "BRAIN",
      "Columns": 936,
      "EchoNumbers": 1,
      "EchoTime": 37.0,
      "EchoTrainLength": 104,
      "FlipAngle": 68.0,
      "HighBit": 15,
      "ImageOrientationPatient": [0.99328946855882, 0.10959785617072, 0.03693699463853, -0.0956428608861, 0.957967438371, -0.2704641014672],
      "ImagePositionPatient": [-846.80573146119, -1038.3458901661, 177.28437110658],
      "ImageType": [
        "ORIGINAL",
        "PRIMARY",
        "M",
        "MB",
        "ND",
        "MOSAIC"
],
      "ImagedNucleus": "1H",
      "ImagingFrequency": 123.191019,
      "InPlanePhaseEncodingDirection": "COL",
      "MRAcquisitionType": "2D",
      "MagneticFieldStrength": 3.0,
      "Manufacturer": "SIEMENS",
      "ManufacturerModelName": "Prisma",
      "Modality": "MR",
      "NumberOfAverages": 1.0,
      "NumberOfPhaseEncodingSteps": 104,
      "PercentPhaseFieldOfView": 100.0,
      "PercentSampling": 100.0,
      "PerformedProcedureStepStartTime": "101139.639000",
      "PhotometricInterpretation": "MONOCHROME2",
      "PixelBandwidth": 2290.0,
      "PixelRepresentation": 0,
      "PixelSpacing": [2.0, 2.0],
      "ProtocolName": "cmrr_mbepi_s6_2mm_66sl_PA_task-prf",
      "RepetitionTime": 1000.0,
      "Rows": 936,
      "SAR": 0.06237597445712,
      "SamplesPerPixel": 1,
      "ScanOptions": "FS",
      "ScanningSequence": "EP",
      "SequenceName": "epfid2d1_104",
      "SequenceVariant": [
        "SK",
        "SS"
],
      "SeriesDescription": "cmrr_mbepi_s6_2mm_66sl_PA_task-prf",
      "SeriesNumber": 10,
      "SeriesTime": "102933.167000",
      "SliceLocation": -49.666178043029,
      "SliceThickness": 2.0,
      "SmallestImagePixelValue": 0,
      "SoftwareVersions": "syngo MR E11",
      "SpacingBetweenSlices": 2.0000000699906,
      "SpecificCharacterSet": "ISO_IR 100",
      "StudyID": "1",
      "StudyTime": "101139.529000",
      "TransmitCoilName": "Body",
      "VariableFlipAngleFlag": "N",
      "WindowCenterWidthExplanation": "Algo1",
      "dBdt": 0.0},
    "slices": {}
  },
  "time": {
    "samples": {
      "AcquisitionNumber": [1, 2, 3, 4, 5, 6, 7, 8, 9, 10, 11, 12, 13, 14, 15, 16, 17, 18, 19, 20, 21, 22, 23, 24, 25, 26, 27, 28, 29, 30, 31, 32, 33, 34, 35, 36, 37, 38, 39, 40, 41, 42, 43, 44, 45, 46, 47, 48, 49, 50, 51, 52, 53, 54, 55, 56, 57, 58, 59, 60, 61, 62, 63, 64, 65, 66, 67, 68, 69, 70, 71, 72, 73, 74, 75, 76, 77, 78, 79, 80, 81, 82, 83, 84, 85, 86, 87, 88, 89, 90, 91, 92, 93, 94, 95, 96, 97, 98, 99, 100, 101, 102, 103, 104, 105, 106, 107, 108, 109, 110, 111, 112, 113, 114, 115, 116, 117, 118, 119, 120, 121, 122, 123, 124, 125, 126, 127, 128, 129, 130, 131, 132, 133, 134, 135, 136, 137, 138, 139, 140, 141, 142, 143, 144, 145, 146, 147, 148, 149, 150, 151, 152, 153, 154, 155, 156, 157, 158, 159, 160, 161, 162, 163, 164, 165, 166, 167, 168, 169, 170, 171, 172, 173, 174, 175, 176, 177, 178, 179, 180, 181, 182, 183, 184, 185, 186, 187, 188, 189, 190, 191, 192],
      "AcquisitionTime": ["102837.450000", "102838.450000", "102839.450000", "102840.450000", "102841.450000", "102842.450000", "102843.450000", "102844.450000", "102845.450000", "102846.450000", "102847.450000", "102848.450000", "102849.450000", "102850.450000", "102851.450000", "102852.450000", "102853.450000", "102854.450000", "102855.450000", "102856.450000", "102857.450000", "102858.450000", "102859.450000", "102900.450000", "102901.450000", "102902.450000", "102903.450000", "102904.450000", "102905.450000", "102906.450000", "102907.450000", "102908.450000", "102909.450000", "102910.450000", "102911.450000", "102912.450000", "102913.450000", "102914.450000", "102915.450000", "102916.450000", "102917.450000", "102918.450000", "102919.450000", "102920.450000", "102921.450000", "102922.450000", "102923.450000", "102924.450000", "102925.450000", "102926.450000", "102927.450000", "102928.450000", "102929.450000", "102930.450000", "102931.450000", "102932.450000", "102933.450000", "102934.450000", "102935.450000", "102936.450000", "102937.450000", "102938.450000", "102939.450000", "102940.450000", "102941.450000", "102942.450000", "102943.450000", "102944.450000", "102945.450000", "102946.450000", "102947.450000", "102948.450000", "102949.450000", "102950.450000", "102951.450000", "102952.450000", "102953.450000", "102954.450000", "102955.450000", "102956.450000", "102957.450000", "102958.450000", "102959.450000", "103000.450000", "103001.450000", "103002.450000", "103003.450000", "103004.450000", "103005.450000", "103006.450000", "103007.450000", "103008.450000", "103009.450000", "103010.450000", "103011.450000", "103012.450000", "103013.450000", "103014.450000", "103015.450000", "103016.450000", "103017.450000", "103018.450000", "103019.450000", "103020.450000", "103021.450000", "103022.450000", "103023.450000", "103024.450000", "103025.450000", "103026.450000", "103027.450000", "103028.450000", "103029.450000", "103030.450000", "103031.450000", "103032.450000", "103033.450000", "103034.450000", "103035.450000", "103036.450000", "103037.450000", "103038.450000", "103039.450000", "103040.450000", "103041.450000", "103042.450000", "103043.450000", "103044.450000", "103045.450000", "103046.450000", "103047.450000", "103048.450000", "103049.450000", "103050.450000", "103051.450000", "103052.450000", "103053.450000", "103054.450000", "103055.450000", "103056.450000", "103057.450000", "103058.450000", "103059.450000", "103100.450000", "103101.450000", "103102.450000", "103103.450000", "103104.450000", "103105.450000", "103106.450000", "103107.450000", "103108.450000", "103109.450000", "103110.450000", "103111.450000", "103112.450000", "103113.450000", "103114.450000", "103115.450000", "103116.450000", "103117.450000", "103118.450000", "103119.450000", "103120.450000", "103121.450000", "103122.450000", "103123.450000", "103124.450000", "103125.450000", "103126.450000", "103127.450000", "103128.450000", "103129.450000", "103130.450000", "103131.450000", "103132.450000", "103133.450000", "103134.450000", "103135.450000", "103136.450000", "103137.450000", "103138.450000", "103139.450000", "103140.450000", "103141.450000", "103142.450000", "103143.450000", "103144.450000", "103145.450000", "103146.450000", "103147.450000", "103148.450000"],
      "ContentTime": ["102933.170000", "102933.174000", "102933.178000", "102933.181000", "102933.184000", "102938.129000", "102938.141000", "102938.144000", "102938.147000", "102938.150000", "102938.153000", "102938.156000", "102943.129000", "102943.132000", "102943.135000", "102943.138000", "102943.142000", "102943.145000", "102943.148000", "102948.129000", "102948.132000", "102948.135000", "102948.138000", "102948.141000", "102948.144000", "102948.147000", "102953.130000", "102953.133000", "102953.136000", "102953.139000", "102953.142000", "102953.145000", "102953.148000", "102958.129000", "102958.132000", "102958.135000", "102958.138000", "102958.141000", "102958.145000", "102958.148000", "103003.129000", "103003.132000", "103003.135000", "103003.138000", "103003.141000", "103003.144000", "103003.147000", "103008.130000", "103008.133000", "103008.136000", "103008.139000", "103008.142000", "103008.145000", "103008.155000", "103013.129000", "103013.132000", "103013.135000", "103013.138000", "103013.141000", "103013.144000", "103013.147000", "103018.129000", "103018.132000", "103018.135000", "103018.138000", "103018.141000", "103018.144000", "103018.147000", "103023.129000", "103023.133000", "103023.136000", "103023.139000", "103023.142000", "103023.145000", "103023.148000", "103028.130000", "103028.133000", "103028.136000", "103028.139000", "103028.142000", "103028.145000", "103028.148000", "103028.152000", "103033.129000", "103033.132000", "103033.135000", "103033.138000", "103033.141000", "103033.144000", "103033.147000", "103038.129000", "103038.132000", "103038.135000", "103038.138000", "103038.141000", "103038.144000", "103038.147000", "103043.130000", "103043.133000", "103043.136000", "103043.139000", "103043.142000", "103043.145000", "103043.148000", "103048.129000", "103048.132000", "103048.135000", "103048.138000", "103048.141000", "103048.144000", "103048.147000", "103053.129000", "103053.132000", "103053.135000", "103053.138000", "103053.141000", "103053.144000", "103053.147000", "103058.129000", "103058.132000", "103058.135000", "103058.138000", "103058.141000", "103058.144000", "103058.147000", "103103.130000", "103103.133000", "103103.136000", "103103.139000", "103103.142000", "103103.145000", "103103.148000", "103108.129000", "103108.132000", "103108.135000", "103108.138000", "103108.141000", "103108.144000", "103108.147000", "103113.129000", "103113.132000", "103113.135000", "103113.138000", "103113.141000", "103113.144000", "103113.147000", "103118.130000", "103118.133000", "103118.136000", "103118.139000", "103118.142000", "103118.145000", "103118.148000", "103123.129000", "103123.132000", "103123.135000", "103123.138000", "103123.141000", "103123.144000", "103123.147000", "103128.129000", "103128.132000", "103128.135000", "103128.138000", "103128.141000", "103128.144000", "103128.147000", "103133.129000", "103133.132000", "103133.135000", "103133.138000", "103133.141000", "103133.159000", "103133.162000", "103138.130000", "103138.133000", "103138.136000", "103138.139000", "103138.142000", "103143.129000", "103143.132000", "103143.135000", "103143.138000", "103143.141000", "103148.129000", "103148.132000", "103148.135000", "103148.138000", "103148.141000", "103150.479000", "103150.482000", "103150.485000"],
      "InstanceCreationTime": ["102933.170000", "102933.174000", "102933.178000", "102933.181000", "102933.184000", "102938.129000", "102938.141000", "102938.144000", "102938.147000", "102938.150000", "102938.153000", "102938.156000", "102943.129000", "102943.132000", "102943.135000", "102943.138000", "102943.142000", "102943.145000", "102943.148000", "102948.129000", "102948.132000", "102948.135000", "102948.138000", "102948.141000", "102948.144000", "102948.147000", "102953.130000", "102953.133000", "102953.136000", "102953.139000", "102953.142000", "102953.145000", "102953.148000", "102958.129000", "102958.132000", "102958.135000", "102958.138000", "102958.141000", "102958.145000", "102958.148000", "103003.129000", "103003.132000", "103003.135000", "103003.138000", "103003.141000", "103003.144000", "103003.147000", "103008.130000", "103008.133000", "103008.136000", "103008.139000", "103008.142000", "103008.145000", "103008.155000", "103013.129000", "103013.132000", "103013.135000", "103013.138000", "103013.141000", "103013.144000", "103013.147000", "103018.129000", "103018.132000", "103018.135000", "103018.138000", "103018.141000", "103018.144000", "103018.147000", "103023.129000", "103023.133000", "103023.136000", "103023.139000", "103023.142000", "103023.145000", "103023.148000", "103028.130000", "103028.133000", "103028.136000", "103028.139000", "103028.142000", "103028.145000", "103028.148000", "103028.152000", "103033.129000", "103033.132000", "103033.135000", "103033.138000", "103033.141000", "103033.144000", "103033.147000", "103038.129000", "103038.132000", "103038.135000", "103038.138000", "103038.141000", "103038.144000", "103038.147000", "103043.130000", "103043.133000", "103043.136000", "103043.139000", "103043.142000", "103043.145000", "103043.148000", "103048.129000", "103048.132000", "103048.135000", "103048.138000", "103048.141000", "103048.144000", "103048.147000", "103053.129000", "103053.132000", "103053.135000", "103053.138000", "103053.141000", "103053.144000", "103053.147000", "103058.129000", "103058.132000", "103058.135000", "103058.138000", "103058.141000", "103058.144000", "103058.147000", "103103.130000", "103103.133000", "103103.136000", "103103.139000", "103103.142000", "103103.145000", "103103.148000", "103108.129000", "103108.132000", "103108.135000", "103108.138000", "103108.141000", "103108.144000", "103108.147000", "103113.129000", "103113.132000", "103113.135000", "103113.138000", "103113.141000", "103113.144000", "103113.147000", "103118.130000", "103118.133000", "103118.136000", "103118.139000", "103118.142000", "103118.145000", "103118.148000", "103123.129000", "103123.132000", "103123.135000", "103123.138000", "103123.141000", "103123.144000", "103123.147000", "103128.129000", "103128.132000", "103128.135000", "103128.138000", "103128.141000", "103128.144000", "103128.147000", "103133.129000", "103133.132000", "103133.135000", "103133.138000", "103133.141000", "103133.159000", "103133.162000", "103138.130000", "103138.133000", "103138.136000", "103138.139000", "103138.142000", "103143.129000", "103143.132000", "103143.135000", "103143.138000", "103143.141000", "103148.129000", "103148.132000", "103148.135000", "103148.138000", "103148.141000", "103150.479000", "103150.482000", "103150.485000"],
      "InstanceNumber": [1, 2, 3, 4, 5, 6, 7, 8, 9, 10, 11, 12, 13, 14, 15, 16, 17, 18, 19, 20, 21, 22, 23, 24, 25, 26, 27, 28, 29, 30, 31, 32, 33, 34, 35, 36, 37, 38, 39, 40, 41, 42, 43, 44, 45, 46, 47, 48, 49, 50, 51, 52, 53, 54, 55, 56, 57, 58, 59, 60, 61, 62, 63, 64, 65, 66, 67, 68, 69, 70, 71, 72, 73, 74, 75, 76, 77, 78, 79, 80, 81, 82, 83, 84, 85, 86, 87, 88, 89, 90, 91, 92, 93, 94, 95, 96, 97, 98, 99, 100, 101, 102, 103, 104, 105, 106, 107, 108, 109, 110, 111, 112, 113, 114, 115, 116, 117, 118, 119, 120, 121, 122, 123, 124, 125, 126, 127, 128, 129, 130, 131, 132, 133, 134, 135, 136, 137, 138, 139, 140, 141, 142, 143, 144, 145, 146, 147, 148, 149, 150, 151, 152, 153, 154, 155, 156, 157, 158, 159, 160, 161, 162, 163, 164, 165, 166, 167, 168, 169, 170, 171, 172, 173, 174, 175, 176, 177, 178, 179, 180, 181, 182, 183, 184, 185, 186, 187, 188, 189, 190, 191, 192],
      "LargestImagePixelValue": [39276, 37948, 37493, 36642, 36360, 36813, 36123, 36737, 37062, 36334, 37420, 37208, 37552, 37360, 36905, 37237, 36912, 36832, 37156, 36725, 37165, 37285, 37235, 36917, 37239, 37438, 37457, 36588, 37113, 37157, 36757, 36749, 36677, 37064, 36918, 37118, 37277, 36893, 36356, 36832, 36579, 36242, 36445, 36914, 36702, 36842, 36201, 36880, 36686, 36184, 36833, 36952, 36599, 35658, 35119, 35560, 37070, 36916, 36715, 36899, 37348, 36784, 36821, 36672, 36840, 36641, 36513, 36138, 36410, 36871, 36426, 35617, 35890, 36164, 35813, 35774, 36144, 35903, 36076, 36405, 35934, 35737, 36205, 36206, 36477, 36292, 36583, 36768, 36295, 36421, 36478, 36307, 36241, 36672, 36012, 36336, 35819, 36255, 35955, 35649, 36179, 35824, 35542, 36335, 36053, 36196, 36428, 36146, 36158, 36164, 36236, 36389, 35907, 34831, 35613, 36146, 36215, 35673, 35812, 35732, 35873, 36298, 36127, 36171, 36210, 35491, 36157, 36304, 35528, 34858, 35985, 36057, 35440, 35907, 36397, 35993, 35332, 36002, 36406, 35494, 35732, 36082, 35335, 36483, 36091, 35889, 36832, 36107, 37073, 36159, 35095, 35516, 35510, 35481, 36101, 35938, 35364, 35587, 35570, 35338, 35676, 35384, 35336, 35861, 35932, 35630, 36652, 36345, 35616, 36603, 36353, 35216, 35668, 34707, 35729, 36482, 36505, 36463, 36196, 35793, 35504, 36350, 36222, 35511, 35338, 38716, 37994, 36927, 37007, 37454, 37364, 38064],
      "WindowCenter": [9419.0, 9388.0, 9388.0, 9391.0, 9402.0, 9403.0, 9388.0, 9375.0, 9370.0, 9348.0, 9357.0, 9350.0, 9356.0, 9356.0, 9344.0, 9351.0, 9357.0, 9359.0, 9365.0, 9360.0, 9351.0, 9356.0, 9350.0, 9351.0, 9369.0, 9384.0, 9386.0, 9373.0, 9378.0, 9369.0, 9361.0, 9358.0, 9358.0, 9374.0, 9378.0, 9386.0, 9385.0, 9378.0, 9369.0, 9377.0, 9386.0, 9381.0, 9382.0, 9381.0, 9374.0, 9380.0, 9367.0, 9373.0, 9379.0, 9365.0, 9369.0, 9370.0, 9372.0, 9360.0, 9346.0, 9341.0, 9349.0, 9342.0, 9348.0, 9342.0, 9348.0, 9334.0, 9333.0, 9347.0, 9342.0, 9355.0, 9351.0, 9345.0, 9351.0, 9367.0, 9373.0, 9362.0, 9369.0, 9369.0, 9358.0, 9349.0, 9347.0, 9340.0, 9346.0, 9353.0, 9341.0, 9347.0, 9353.0, 9353.0, 9363.0, 9364.0, 9370.0, 9371.0, 9372.0, 9372.0, 9374.0, 9373.0, 9373.0, 9379.0, 9367.0, 9365.0, 9352.0, 9357.0, 9357.0, 9350.0, 9361.0, 9355.0, 9341.0, 9350.0, 9336.0, 9328.0, 9333.0, 9319.0, 9317.0, 9318.0, 9325.0, 9341.0, 9346.0, 9343.0, 9356.0, 9363.0, 9360.0, 9348.0, 9346.0, 9339.0, 9338.0, 9336.0, 9337.0, 9344.0, 9352.0, 9342.0, 9354.0, 9354.0, 9349.0, 9337.0, 9357.0, 9372.0, 9376.0, 9385.0, 9397.0, 9387.0, 9377.0, 9374.0, 9365.0, 9349.0, 9346.0, 9346.0, 9339.0, 9351.0, 9353.0, 9346.0, 9365.0, 9381.0, 9392.0, 9373.0, 9366.0, 9365.0, 9364.0, 9358.0, 9371.0, 9358.0, 9349.0, 9347.0, 9354.0, 9350.0, 9365.0, 9375.0, 9369.0, 9373.0, 9366.0, 9365.0, 9375.0, 9371.0, 9359.0, 9363.0, 9370.0, 9353.0, 9358.0, 9353.0, 9364.0, 9362.0, 9360.0, 9358.0, 9353.0, 9347.0, 9346.0, 9357.0, 9358.0, 9349.0, 9280.0, 9395.0, 9387.0, 9377.0, 9381.0, 9381.0, 9373.0, 9378.0],
      "WindowWidth": [20038.0, 19969.0, 19969.0, 19976.0, 20003.0, 20000.0, 19969.0, 19936.0, 19916.0, 19871.0, 19883.0, 19869.0, 19885.0, 19886.0, 19865.0, 19876.0, 19888.0, 19894.0, 19905.0, 19896.0, 19875.0, 19881.0, 19872.0, 19879.0, 19919.0, 19958.0, 19957.0, 19937.0, 19941.0, 19920.0, 19903.0, 19892.0, 19894.0, 19926.0, 19938.0, 19956.0, 19954.0, 19939.0, 19918.0, 19939.0, 19956.0, 19951.0, 19953.0, 19949.0, 19936.0, 19949.0, 19925.0, 19937.0, 19946.0, 19918.0, 19923.0, 19923.0, 19927.0, 19905.0, 19879.0, 19861.0, 19867.0, 19854.0, 19865.0, 19860.0, 19865.0, 19839.0, 19835.0, 19861.0, 19858.0, 19886.0, 19884.0, 19872.0, 19883.0, 19918.0, 19934.0, 19917.0, 19929.0, 19927.0, 19901.0, 19881.0, 19874.0, 19862.0, 19872.0, 19886.0, 19866.0, 19877.0, 19886.0, 19887.0, 19909.0, 19912.0, 19923.0, 19924.0, 19929.0, 19932.0, 19938.0, 19936.0, 19937.0, 19946.0, 19924.0, 19918.0, 19893.0, 19903.0, 19903.0, 19886.0, 19901.0, 19889.0, 19867.0, 19873.0, 19847.0, 19829.0, 19833.0, 19805.0, 19801.0, 19807.0, 19825.0, 19856.0, 19873.0, 19875.0, 19897.0, 19905.0, 19895.0, 19873.0, 19866.0, 19856.0, 19852.0, 19847.0, 19849.0, 19861.0, 19879.0, 19865.0, 19888.0, 19888.0, 19883.0, 19862.0, 19898.0, 19930.0, 19944.0, 19964.0, 19988.0, 19968.0, 19950.0, 19936.0, 19913.0, 19882.0, 19870.0, 19870.0, 19861.0, 19882.0, 19885.0, 19874.0, 19907.0, 19952.0, 19962.0, 19923.0, 19912.0, 19910.0, 19904.0, 19894.0, 19917.0, 19895.0, 19877.0, 19872.0, 19885.0, 19882.0, 19913.0, 19936.0, 19926.0, 19931.0, 19916.0, 19911.0, 19928.0, 19922.0, 19902.0, 19908.0, 19919.0, 19892.0, 19900.0, 19895.0, 19909.0, 19900.0, 19890.0, 19888.0, 19880.0, 19869.0, 19867.0, 19886.0, 19889.0, 19878.0, 19729.0, 19968.0, 19944.0, 19925.0, 19932.0, 19932.0, 19916.0, 19925.0]
    },
    "slices": {}
  },
  "NumberOfVolumes": 192
}