{
  "aor": 0.0009077083333333333,
  "aqi": 0.0068145670312500005,
  "bids_meta": {
    "AcquisitionMatrixPE": 104,
    "AcquisitionNumber": 1,
    "AcquisitionTime": "16:53:1.502500",
    "BandwidthPerPixelPhaseEncode": 16.578,
    "BaseResolution": 104,
    "BodyPartExamined": "BRAIN",
    "CogAtlasID": "TODO",
    "ConsistencyInfo": "N4_VE11C_LATEST_20160120",
    "ConversionSoftware": "dcm2niix",
    "ConversionSoftwareVersion": "v1.0.20190902",
    "DerivedVendorReportedEchoSpacing": 0.000580009,
    "DeviceSerialNumber": "166018",
    "DwellTime": 2.1e-06,
    "EchoTime": 0.037,
    "EchoTrainLength": 104,
    "EffectiveEchoSpacing": 0.000580009,
    "FlipAngle": 68,
    "ImageComments": "Unaliased_MB6_PE3_LB",
    "ImageOrientationPatientDICOM": [
      0.998528,
      0.00292711,
      0.0541541,
      0.0113284,
      0.965258,
      -0.261055
    ],
    "ImageType": [
      "ORIGINAL",
      "PRIMARY",
      "FMRI",
      "NONE",
      "MB",
      "ND",
      "MOSAIC"
    ],
    "ImagingFrequency": 123.191,
    "InPlanePhaseEncodingDirectionDICOM": "COL",
    "InstitutionAddress": "Washington_Place_6_NYC_NYC_US_10003",
    "InstitutionName": "NYU_-_CBI",
    "InstitutionalDepartmentName": "Department",
    "MRAcquisitionType": "2D",
    "MagneticFieldStrength": 3,
    "Manufacturer": "Siemens",
    "ManufacturersModelName": "Prisma",
    "Modality": "MR",
    "MultibandAccelerationFactor": 6,
    "NumberOfVolumes": 192,
    "PartialFourier": 1,
    "PatientPosition": "HFS",
    "PercentPhaseFOV": 100,
    "PhaseEncodingDirection": "j",
    "PhaseEncodingSteps": 104,
    "PhaseResolution": 1,
    "PixelBandwidth": 2290,
    "ProcedureStepDescription": "Investigators_Winawer",
    "ProtocolName": "cmrr_mbepi_s6_2mm_66sl_PA_task-prf",
    "PulseSequenceDetails": "%CustomerSeq%_cmrr_mbep2d_bold",
    "ReceiveCoilActiveElements": "HC1-7",
    "ReceiveCoilName": "HeadNeck_64",
    "ReconMatrixPE": 104,
    "RepetitionTime": 1,
    "SAR": 0.0751342,
    "ScanOptions": "FS",
    "ScanningSequence": "EP",
    "SequenceName": "epfid2d1_104",
    "SequenceVariant": "SK_SS",
    "SeriesDescription": "cmrr_mbepi_s6_2mm_66sl_PA_task-prf",
    "SeriesNumber": 32,
    "ShimSetting": [
      273,
      -12572,
      -8409,
      330,
      -51,
      -69,
      -97,
      26
    ],
    "SliceThickness": 2,
    "SliceTiming": [
      0,
      0.535,
      0.09,
      0.625,
      0.18,
      0.7125,
      0.2675,
      0.8025,
      0.3575,
      0.8925,
      0.445,
      0,
      0.535,
      0.09,
      0.625,
      0.18,
      0.7125,
      0.2675,
      0.8025,
      0.3575,
      0.8925,
      0.445,
      0,
      0.535,
      0.09,
      0.625,
      0.18,
      0.7125,
      0.2675,
      0.8025,
      0.3575,
      0.8925,
      0.445,
      0,
      0.535,
      0.09,
      0.625,
      0.18,
      0.7125,
      0.2675,
      0.8025,
      0.3575,
      0.8925,
      0.445,
      0,
      0.535,
      0.09,
      0.625,
      0.18,
      0.7125,
      0.2675,
      0.8025,
      0.3575,
      0.8925,
      0.445,
      0,
      0.535,
      0.09,
      0.625,
      0.18,
      0.7125,
      0.2675,
      0.8025,
      0.3575,
      0.8925,
      0.445
    ],
    "SoftwareVersions": "syngo_MR_E11",
    "SpacingBetweenSlices": 2,
    "StationName": "AWP166018",
    "TaskName": "prf",
    "TotalReadoutTime": 0.0597409,
    "TxRefAmp": 230.408,
    "WipMemBlock": "18709dc5-b9c1-4c5f-8d98-c15ecd1181b8||Sequence: R016 ve11c/master r/8780670; Nov 27 2017 15:05:12 by eja",
    "acq_id": "PA",
    "dataset": "unknown",
    "dcmmeta_affine": [
      [
        -1.9970566034317017,
        0.022656887769699097,
        0.10607355833053589,
        108.55162811279297
      ],
      [
        -0.005854212213307619,
        1.9305150508880615,
        -0.5225681066513062,
        -72.21367645263672
      ],
      [
        0.10830818116664886,
        0.5221095085144043,
        1.9276076555252075,
        -64.4687728881836
      ],
      [
        0.0,
        0.0,
        0.0,
        1.0
      ]
    ],
    "dcmmeta_reorient_transform": [
      [
        0.0,
        -1.0,
        0.0,
        103.0
      ],
      [
        1.0,
        0.0,
        0.0,
        0.0
      ],
      [
        0.0,
        0.0,
        1.0,
        0.0
      ],
      [
        0.0,
        0.0,
        0.0,
        1.0
      ]
    ],
    "dcmmeta_shape": [
      104,
      104,
      66,
      192
    ],
    "dcmmeta_slice_dim": 2,
    "dcmmeta_version": 0.6,
    "global": {
      "const": {
        "AccessionNumber": "jur4Lwg3",
        "AcquisitionMatrix": [
          104,
          0,
          0,
          104
        ],
        "AngioFlag": "N",
        "BitsAllocated": 16,
        "BitsStored": 16,
        "BodyPartExamined": "BRAIN",
        "Columns": 936,
        "EchoNumbers": 1,
        "EchoTime": 37.0,
        "EchoTrainLength": 104,
        "FlipAngle": 68.0,
        "HighBit": 15,
        "ImageOrientationPatient": [
          0.99852830026932,
          0.00292710608909,
          0.05415409136158,
          0.01132844359189,
          0.9652575224754,
          -0.2610547484158
        ],
        "ImagePositionPatient": [
          -951.08609740043,
          -932.15898372308,
          161.44985133697
        ],
        "ImageType": [
          "ORIGINAL",
          "PRIMARY",
          "FMRI",
          "NONE",
          "MB",
          "ND",
          "MOSAIC"
        ],
        "ImagedNucleus": "1H",
        "ImagingFrequency": 123.190992,
        "InPlanePhaseEncodingDirection": "COL",
        "MRAcquisitionType": "2D",
        "MagneticFieldStrength": 3.0,
        "Manufacturer": "SIEMENS",
        "ManufacturerModelName": "Prisma",
        "Modality": "MR",
        "NumberOfAverages": 1.0,
        "NumberOfPhaseEncodingSteps": 104,
        "PercentPhaseFieldOfView": 100.0,
        "PercentSampling": 100.0,
        "PerformedProcedureStepStartTime": "161503.964000",
        "PhotometricInterpretation": "MONOCHROME2",
        "PixelBandwidth": 2290.0,
        "PixelRepresentation": 0,
        "PixelSpacing": [
          2.0,
          2.0
        ],
        "ProtocolName": "cmrr_mbepi_s6_2mm_66sl_PA_task-prf",
        "RepetitionTime": 1000.0,
        "Rows": 936,
        "SAR": 0.0751342209519,
        "SamplesPerPixel": 1,
        "ScanOptions": "FS",
        "ScanningSequence": "EP",
        "SequenceName": "epfid2d1_104",
        "SequenceVariant": [
          "SK",
          "SS"
        ],
        "SeriesDescription": "cmrr_mbepi_s6_2mm_66sl_PA_task-prf",
        "SeriesNumber": 32,
        "SeriesTime": "165357.137000",
        "SliceLocation": -37.509738888644,
        "SliceThickness": 2.0,
        "SmallestImagePixelValue": 0,
        "SoftwareVersions": "syngo MR E11",
        "SpacingBetweenSlices": 2.0000000737764,
        "SpecificCharacterSet": "ISO_IR 100",
        "StudyID": "1",
        "StudyTime": "161503.852000",
        "TransmitCoilName": "Body",
        "VariableFlipAngleFlag": "N",
        "WindowCenterWidthExplanation": "Algo1",
        "dBdt": 0.0
      },
      "slices": {}
    },
    "modality": "bold",
    "run_id": 5,
    "session_id": "nyu3t01",
    "subject_id": "wlsubj088",
    "task_id": "prf",
    "time": {
      "samples": {
        "AcquisitionNumber": [
          1,
          2,
          3,
          4,
          5,
          6,
          7,
          8,
          9,
          10,
          11,
          12,
          13,
          14,
          15,
          16,
          17,
          18,
          19,
          20,
          21,
          22,
          23,
          24,
          25,
          26,
          27,
          28,
          29,
          30,
          31,
          32,
          33,
          34,
          35,
          36,
          37,
          38,
          39,
          40,
          41,
          42,
          43,
          44,
          45,
          46,
          47,
          48,
          49,
          50,
          51,
          52,
          53,
          54,
          55,
          56,
          57,
          58,
          59,
          60,
          61,
          62,
          63,
          64,
          65,
          66,
          67,
          68,
          69,
          70,
          71,
          72,
          73,
          74,
          75,
          76,
          77,
          78,
          79,
          80,
          81,
          82,
          83,
          84,
          85,
          86,
          87,
          88,
          89,
          90,
          91,
          92,
          93,
          94,
          95,
          96,
          97,
          98,
          99,
          100,
          101,
          102,
          103,
          104,
          105,
          106,
          107,
          108,
          109,
          110,
          111,
          112,
          113,
          114,
          115,
          116,
          117,
          118,
          119,
          120,
          121,
          122,
          123,
          124,
          125,
          126,
          127,
          128,
          129,
          130,
          131,
          132,
          133,
          134,
          135,
          136,
          137,
          138,
          139,
          140,
          141,
          142,
          143,
          144,
          145,
          146,
          147,
          148,
          149,
          150,
          151,
          152,
          153,
          154,
          155,
          156,
          157,
          158,
          159,
          160,
          161,
          162,
          163,
          164,
          165,
          166,
          167,
          168,
          169,
          170,
          171,
          172,
          173,
          174,
          175,
          176,
          177,
          178,
          179,
          180,
          181,
          182,
          183,
          184,
          185,
          186,
          187,
          188,
          189,
          190,
          191,
          192
        ],
        "AcquisitionTime": [
          "165301.502500",
          "165302.502500",
          "165303.502500",
          "165304.502500",
          "165305.502500",
          "165306.502500",
          "165307.502500",
          "165308.502500",
          "165309.502500",
          "165310.502500",
          "165311.502500",
          "165312.502500",
          "165313.502500",
          "165314.502500",
          "165315.502500",
          "165316.502500",
          "165317.502500",
          "165318.502500",
          "165319.502500",
          "165320.502500",
          "165321.502500",
          "165322.502500",
          "165323.502500",
          "165324.502500",
          "165325.502500",
          "165326.502500",
          "165327.502500",
          "165328.502500",
          "165329.502500",
          "165330.502500",
          "165331.502500",
          "165332.502500",
          "165333.502500",
          "165334.502500",
          "165335.502500",
          "165336.502500",
          "165337.502500",
          "165338.502500",
          "165339.502500",
          "165340.502500",
          "165341.502500",
          "165342.502500",
          "165343.502500",
          "165344.502500",
          "165345.502500",
          "165346.502500",
          "165347.502500",
          "165348.502500",
          "165349.502500",
          "165350.502500",
          "165351.502500",
          "165352.502500",
          "165353.502500",
          "165354.502500",
          "165355.502500",
          "165356.502500",
          "165357.502500",
          "165358.502500",
          "165359.502500",
          "165400.502500",
          "165401.502500",
          "165402.502500",
          "165403.502500",
          "165404.502500",
          "165405.502500",
          "165406.502500",
          "165407.502500",
          "165408.502500",
          "165409.502500",
          "165410.502500",
          "165411.502500",
          "165412.502500",
          "165413.502500",
          "165414.502500",
          "165415.502500",
          "165416.502500",
          "165417.502500",
          "165418.502500",
          "165419.502500",
          "165420.502500",
          "165421.502500",
          "165422.502500",
          "165423.502500",
          "165424.502500",
          "165425.502500",
          "165426.502500",
          "165427.502500",
          "165428.502500",
          "165429.502500",
          "165430.502500",
          "165431.502500",
          "165432.502500",
          "165433.502500",
          "165434.502500",
          "165435.502500",
          "165436.502500",
          "165437.502500",
          "165438.502500",
          "165439.502500",
          "165440.502500",
          "165441.502500",
          "165442.502500",
          "165443.502500",
          "165444.502500",
          "165445.502500",
          "165446.502500",
          "165447.502500",
          "165448.502500",
          "165449.502500",
          "165450.502500",
          "165451.502500",
          "165452.502500",
          "165453.502500",
          "165454.502500",
          "165455.502500",
          "165456.502500",
          "165457.502500",
          "165458.502500",
          "165459.502500",
          "165500.502500",
          "165501.502500",
          "165502.502500",
          "165503.502500",
          "165504.502500",
          "165505.502500",
          "165506.502500",
          "165507.502500",
          "165508.502500",
          "165509.502500",
          "165510.502500",
          "165511.502500",
          "165512.502500",
          "165513.502500",
          "165514.502500",
          "165515.502500",
          "165516.502500",
          "165517.502500",
          "165518.502500",
          "165519.502500",
          "165520.502500",
          "165521.502500",
          "165522.502500",
          "165523.502500",
          "165524.502500",
          "165525.502500",
          "165526.502500",
          "165527.502500",
          "165528.502500",
          "165529.502500",
          "165530.502500",
          "165531.502500",
          "165532.502500",
          "165533.502500",
          "165534.502500",
          "165535.502500",
          "165536.502500",
          "165537.502500",
          "165538.502500",
          "165539.502500",
          "165540.502500",
          "165541.502500",
          "165542.502500",
          "165543.502500",
          "165544.502500",
          "165545.502500",
          "165546.502500",
          "165547.502500",
          "165548.502500",
          "165549.502500",
          "165550.502500",
          "165551.502500",
          "165552.502500",
          "165553.502500",
          "165554.502500",
          "165555.502500",
          "165556.502500",
          "165557.502500",
          "165558.502500",
          "165559.502500",
          "165600.502500",
          "165601.502500",
          "165602.502500",
          "165603.502500",
          "165604.502500",
          "165605.502500",
          "165606.502500",
          "165607.502500",
          "165608.502500",
          "165609.502500",
          "165610.502500",
          "165611.502500",
          "165612.502500"
        ],
        "ContentTime": [
          "165357.140000",
          "165357.741000",
          "165358.494000",
          "165359.135000",
          "165359.882000",
          "165400.537000",
          "165401.296000",
          "165401.989000",
          "165402.800000",
          "165403.466000",
          "165404.214000",
          "165404.844000",
          "165405.589000",
          "165406.302000",
          "165407.010000",
          "165407.657000",
          "165408.393000",
          "165409.069000",
          "165409.818000",
          "165410.468000",
          "165411.241000",
          "165411.874000",
          "165412.634000",
          "165413.383000",
          "165414.145000",
          "165414.792000",
          "165415.570000",
          "165416.222000",
          "165416.977000",
          "165417.630000",
          "165418.403000",
          "165419.060000",
          "165419.807000",
          "165420.474000",
          "165421.233000",
          "165421.872000",
          "165422.636000",
          "165423.281000",
          "165423.995000",
          "165424.742000",
          "165425.381000",
          "165426.139000",
          "165426.812000",
          "165427.560000",
          "165428.199000",
          "165428.930000",
          "165429.580000",
          "165430.350000",
          "165430.983000",
          "165431.719000",
          "165432.392000",
          "165433.094000",
          "165433.881000",
          "165434.544000",
          "165435.239000",
          "165435.953000",
          "165436.659000",
          "165437.452000",
          "165438.131000",
          "165438.896000",
          "165439.620000",
          "165440.379000",
          "165441.062000",
          "165441.794000",
          "165442.467000",
          "165443.198000",
          "165443.854000",
          "165444.972000",
          "165445.349000",
          "165446.028000",
          "165446.719000",
          "165447.511000",
          "165448.179000",
          "165448.938000",
          "165449.611000",
          "165450.343000",
          "165451.125000",
          "165451.741000",
          "165452.465000",
          "165453.139000",
          "165453.880000",
          "165454.548000",
          "165455.335000",
          "165455.968000",
          "165456.727000",
          "165457.383000",
          "165458.171000",
          "165458.832000",
          "165459.569000",
          "165500.231000",
          "165500.978000",
          "165501.640000",
          "165502.398000",
          "165503.054000",
          "165503.826000",
          "165504.493000",
          "165505.263000",
          "165505.902000",
          "165506.627000",
          "165507.357000",
          "165508.042000",
          "165508.712000",
          "165509.462000",
          "165510.171000",
          "165510.923000",
          "165511.602000",
          "165512.424000",
          "165513.028000",
          "165513.799000",
          "165514.455000",
          "165515.231000",
          "165515.893000",
          "165516.606000",
          "165517.404000",
          "165518.061000",
          "165518.785000",
          "165519.476000",
          "165520.190000",
          "165520.868000",
          "165521.599000",
          "165522.352000",
          "165522.991000",
          "165523.739000",
          "165524.406000",
          "165525.160000",
          "165525.804000",
          "165526.557000",
          "165527.196000",
          "165527.972000",
          "165528.692000",
          "165529.376000",
          "165530.118000",
          "165530.780000",
          "165531.533000",
          "165532.195000",
          "165532.959000",
          "165533.615000",
          "165534.363000",
          "165535.036000",
          "165535.749000",
          "165536.445000",
          "165537.188000",
          "165537.918000",
          "165538.620000",
          "165539.362000",
          "165540.031000",
          "165540.737000",
          "165541.428000",
          "165542.124000",
          "165542.888000",
          "165543.522000",
          "165544.309000",
          "165544.954000",
          "165545.718000",
          "165546.409000",
          "165547.076000",
          "165547.835000",
          "165548.549000",
          "165549.239000",
          "165549.975000",
          "165550.677000",
          "165551.385000",
          "165552.075000",
          "165552.766000",
          "165553.473000",
          "165554.152000",
          "165554.871000",
          "165555.602000",
          "165556.282000",
          "165556.983000",
          "165557.697000",
          "165558.376000",
          "165559.106000",
          "165559.757000",
          "165600.533000",
          "165601.195000",
          "165601.925000",
          "165602.576000",
          "165603.375000",
          "165603.985000",
          "165604.784000",
          "165605.429000",
          "165606.256000",
          "165606.838000",
          "165607.608000",
          "165608.430000",
          "165609.434000",
          "165610.433000",
          "165611.426000",
          "165612.441000",
          "165613.424000",
          "165614.440000"
        ],
        "InstanceCreationTime": [
          "165357.140000",
          "165357.741000",
          "165358.494000",
          "165359.135000",
          "165359.882000",
          "165400.537000",
          "165401.296000",
          "165401.989000",
          "165402.800000",
          "165403.466000",
          "165404.214000",
          "165404.844000",
          "165405.589000",
          "165406.302000",
          "165407.010000",
          "165407.657000",
          "165408.393000",
          "165409.069000",
          "165409.818000",
          "165410.468000",
          "165411.241000",
          "165411.874000",
          "165412.634000",
          "165413.383000",
          "165414.145000",
          "165414.792000",
          "165415.570000",
          "165416.222000",
          "165416.977000",
          "165417.630000",
          "165418.403000",
          "165419.060000",
          "165419.807000",
          "165420.474000",
          "165421.233000",
          "165421.872000",
          "165422.636000",
          "165423.281000",
          "165423.995000",
          "165424.742000",
          "165425.381000",
          "165426.139000",
          "165426.812000",
          "165427.560000",
          "165428.199000",
          "165428.930000",
          "165429.580000",
          "165430.350000",
          "165430.983000",
          "165431.719000",
          "165432.392000",
          "165433.094000",
          "165433.881000",
          "165434.544000",
          "165435.239000",
          "165435.953000",
          "165436.659000",
          "165437.452000",
          "165438.131000",
          "165438.896000",
          "165439.620000",
          "165440.379000",
          "165441.062000",
          "165441.794000",
          "165442.467000",
          "165443.198000",
          "165443.854000",
          "165444.972000",
          "165445.349000",
          "165446.028000",
          "165446.719000",
          "165447.511000",
          "165448.179000",
          "165448.938000",
          "165449.611000",
          "165450.343000",
          "165451.125000",
          "165451.741000",
          "165452.465000",
          "165453.139000",
          "165453.880000",
          "165454.548000",
          "165455.335000",
          "165455.968000",
          "165456.727000",
          "165457.383000",
          "165458.171000",
          "165458.832000",
          "165459.569000",
          "165500.231000",
          "165500.978000",
          "165501.640000",
          "165502.398000",
          "165503.054000",
          "165503.826000",
          "165504.493000",
          "165505.263000",
          "165505.902000",
          "165506.627000",
          "165507.357000",
          "165508.042000",
          "165508.712000",
          "165509.462000",
          "165510.171000",
          "165510.923000",
          "165511.602000",
          "165512.424000",
          "165513.028000",
          "165513.799000",
          "165514.455000",
          "165515.231000",
          "165515.893000",
          "165516.606000",
          "165517.404000",
          "165518.061000",
          "165518.785000",
          "165519.476000",
          "165520.190000",
          "165520.868000",
          "165521.599000",
          "165522.352000",
          "165522.991000",
          "165523.739000",
          "165524.406000",
          "165525.160000",
          "165525.804000",
          "165526.557000",
          "165527.196000",
          "165527.972000",
          "165528.692000",
          "165529.376000",
          "165530.118000",
          "165530.780000",
          "165531.533000",
          "165532.195000",
          "165532.959000",
          "165533.615000",
          "165534.363000",
          "165535.036000",
          "165535.749000",
          "165536.445000",
          "165537.188000",
          "165537.918000",
          "165538.620000",
          "165539.362000",
          "165540.031000",
          "165540.737000",
          "165541.428000",
          "165542.124000",
          "165542.888000",
          "165543.522000",
          "165544.309000",
          "165544.954000",
          "165545.718000",
          "165546.409000",
          "165547.076000",
          "165547.835000",
          "165548.549000",
          "165549.239000",
          "165549.975000",
          "165550.677000",
          "165551.385000",
          "165552.075000",
          "165552.766000",
          "165553.473000",
          "165554.152000",
          "165554.871000",
          "165555.602000",
          "165556.282000",
          "165556.983000",
          "165557.697000",
          "165558.376000",
          "165559.106000",
          "165559.757000",
          "165600.533000",
          "165601.195000",
          "165601.925000",
          "165602.576000",
          "165603.375000",
          "165603.985000",
          "165604.784000",
          "165605.429000",
          "165606.256000",
          "165606.838000",
          "165607.608000",
          "165608.430000",
          "165609.434000",
          "165610.433000",
          "165611.426000",
          "165612.441000",
          "165613.424000",
          "165614.440000"
        ],
        "InstanceNumber": [
          1,
          2,
          3,
          4,
          5,
          6,
          7,
          8,
          9,
          10,
          11,
          12,
          13,
          14,
          15,
          16,
          17,
          18,
          19,
          20,
          21,
          22,
          23,
          24,
          25,
          26,
          27,
          28,
          29,
          30,
          31,
          32,
          33,
          34,
          35,
          36,
          37,
          38,
          39,
          40,
          41,
          42,
          43,
          44,
          45,
          46,
          47,
          48,
          49,
          50,
          51,
          52,
          53,
          54,
          55,
          56,
          57,
          58,
          59,
          60,
          61,
          62,
          63,
          64,
          65,
          66,
          67,
          68,
          69,
          70,
          71,
          72,
          73,
          74,
          75,
          76,
          77,
          78,
          79,
          80,
          81,
          82,
          83,
          84,
          85,
          86,
          87,
          88,
          89,
          90,
          91,
          92,
          93,
          94,
          95,
          96,
          97,
          98,
          99,
          100,
          101,
          102,
          103,
          104,
          105,
          106,
          107,
          108,
          109,
          110,
          111,
          112,
          113,
          114,
          115,
          116,
          117,
          118,
          119,
          120,
          121,
          122,
          123,
          124,
          125,
          126,
          127,
          128,
          129,
          130,
          131,
          132,
          133,
          134,
          135,
          136,
          137,
          138,
          139,
          140,
          141,
          142,
          143,
          144,
          145,
          146,
          147,
          148,
          149,
          150,
          151,
          152,
          153,
          154,
          155,
          156,
          157,
          158,
          159,
          160,
          161,
          162,
          163,
          164,
          165,
          166,
          167,
          168,
          169,
          170,
          171,
          172,
          173,
          174,
          175,
          176,
          177,
          178,
          179,
          180,
          181,
          182,
          183,
          184,
          185,
          186,
          187,
          188,
          189,
          190,
          191,
          192
        ],
        "LargestImagePixelValue": [
          39801,
          38633,
          37847,
          37696,
          37385,
          37333,
          37288,
          37332,
          37025,
          37388,
          37215,
          36839,
          37241,
          37380,
          37098,
          37167,
          37168,
          37054,
          37206,
          37306,
          37618,
          37272,
          36960,
          37287,
          37192,
          37543,
          37401,
          37538,
          37387,
          37066,
          36824,
          37117,
          37285,
          37377,
          37261,
          37883,
          37355,
          37275,
          37203,
          37609,
          37227,
          37615,
          38402,
          37964,
          37461,
          37354,
          37612,
          37729,
          37693,
          37602,
          37722,
          37491,
          37872,
          37460,
          37947,
          37570,
          37587,
          37773,
          37753,
          38114,
          38271,
          37917,
          37812,
          38120,
          38385,
          37909,
          38045,
          37669,
          38194,
          38208,
          37907,
          38163,
          37812,
          38044,
          38061,
          38229,
          38121,
          38488,
          37761,
          37813,
          37963,
