{
  "aor": 0.0006564583333333334,
  "aqi": 0.006951096875,
  "bids_meta": {
    "AcquisitionMatrixPE": 104,
    "AcquisitionNumber": 1,
    "AcquisitionTime": "16:57:40.507500",
    "BandwidthPerPixelPhaseEncode": 16.578,
    "BaseResolution": 104,
    "BodyPartExamined": "BRAIN",
    "CogAtlasID": "TODO",
    "ConsistencyInfo": "N4_VE11C_LATEST_20160120",
    "ConversionSoftware": "dcm2niix",
    "ConversionSoftwareVersion": "v1.0.20190902",
    "DerivedVendorReportedEchoSpacing": 0.000580009,
    "DeviceSerialNumber": "166018",
    "DwellTime": 2.1e-06,
    "EchoTime": 0.037,
    "EchoTrainLength": 104,
    "EffectiveEchoSpacing": 0.000580009,
    "FlipAngle": 68,
    "ImageComments": "Unaliased_MB6_PE3_LB",
    "ImageOrientationPatientDICOM": [
      0.998528,
      0.00292711,
      0.0541541,
      0.0113284,
      0.965258,
      -0.261055
    ],
    "ImageType": [
      "ORIGINAL",
      "PRIMARY",
      "FMRI",
      "NONE",
      "MB",
      "ND",
      "MOSAIC"
    ],
    "ImagingFrequency": 123.191,
    "InPlanePhaseEncodingDirectionDICOM": "COL",
    "InstitutionAddress": "Washington_Place_6_NYC_NYC_US_10003",
    "InstitutionName": "NYU_-_CBI",
    "InstitutionalDepartmentName": "Department",
    "MRAcquisitionType": "2D",
    "MagneticFieldStrength": 3,
    "Manufacturer": "Siemens",
    "ManufacturersModelName": "Prisma",
    "Modality": "MR",
    "MultibandAccelerationFactor": 6,
    "NumberOfVolumes": 192,
    "PartialFourier": 1,
    "PatientPosition": "HFS",
    "PercentPhaseFOV": 100,
    "PhaseEncodingDirection": "j",
    "PhaseEncodingSteps": 104,
    "PhaseResolution": 1,
    "PixelBandwidth": 2290,
    "ProcedureStepDescription": "Investigators_Winawer",
    "ProtocolName": "cmrr_mbepi_s6_2mm_66sl_PA_task-prf",
    "PulseSequenceDetails": "%CustomerSeq%_cmrr_mbep2d_bold",
    "ReceiveCoilActiveElements": "HC1-7",
    "ReceiveCoilName": "HeadNeck_64",
    "ReconMatrixPE": 104,
    "RepetitionTime": 1,
    "SAR": 0.0751342,
    "ScanOptions": "FS",
    "ScanningSequence": "EP",
    "SequenceName": "epfid2d1_104",
    "SequenceVariant": "SK_SS",
    "SeriesDescription": "cmrr_mbepi_s6_2mm_66sl_PA_task-prf",
    "SeriesNumber": 38,
    "ShimSetting": [
      273,
      -12572,
      -8409,
      330,
      -51,
      -69,
      -97,
      26
    ],
    "SliceThickness": 2,
    "SliceTiming": [
      0,
      0.535,
      0.09,
      0.625,
      0.18,
      0.7125,
      0.2675,
      0.8025,
      0.3575,
      0.8925,
      0.4475,
      0,
      0.535,
      0.09,
      0.625,
      0.18,
      0.7125,
      0.2675,
      0.8025,
      0.3575,
      0.8925,
      0.4475,
      0,
      0.535,
      0.09,
      0.625,
      0.18,
      0.7125,
      0.2675,
      0.8025,
      0.3575,
      0.8925,
      0.4475,
      0,
      0.535,
      0.09,
      0.625,
      0.18,
      0.7125,
      0.2675,
      0.8025,
      0.3575,
      0.8925,
      0.4475,
      0,
      0.535,
      0.09,
      0.625,
      0.18,
      0.7125,
      0.2675,
      0.8025,
      0.3575,
      0.8925,
      0.4475,
      0,
      0.535,
      0.09,
      0.625,
      0.18,
      0.7125,
      0.2675,
      0.8025,
      0.3575,
      0.8925,
      0.4475
    ],
    "SoftwareVersions": "syngo_MR_E11",
    "SpacingBetweenSlices": 2,
    "StationName": "AWP166018",
    "TaskName": "prf",
    "TotalReadoutTime": 0.0597409,
    "TxRefAmp": 230.408,
    "WipMemBlock": "18709dc5-b9c1-4c5f-8d98-c15ecd1181b8||Sequence: R016 ve11c/master r/8780670; Nov 27 2017 15:05:12 by eja",
    "acq_id": "PA",
    "dataset": "unknown",
    "dcmmeta_affine": [
      [
        -1.9970566034317017,
        0.022656887769699097,
        0.10607355833053589,
        108.55162811279297
      ],
      [
        -0.005854212213307619,
        1.9305150508880615,
        -0.5225681066513062,
        -72.21367645263672
      ],
      [
        0.10830818116664886,
        0.5221095085144043,
        1.9276076555252075,
        -64.4687728881836
      ],
      [
        0.0,
        0.0,
        0.0,
        1.0
      ]
    ],
    "dcmmeta_reorient_transform": [
      [
        0.0,
        -1.0,
        0.0,
        103.0
      ],
      [
        1.0,
        0.0,
        0.0,
        0.0
      ],
      [
        0.0,
        0.0,
        1.0,
        0.0
      ],
      [
        0.0,
        0.0,
        0.0,
        1.0
      ]
    ],
    "dcmmeta_shape": [
      104,
      104,
      66,
      192
    ],
    "dcmmeta_slice_dim": 2,
    "dcmmeta_version": 0.6,
    "global": {
      "const": {
        "AccessionNumber": "jur4Lwg3",
        "AcquisitionMatrix": [
          104,
          0,
          0,
          104
        ],
        "AngioFlag": "N",
        "BitsAllocated": 16,
        "BitsStored": 16,
        "BodyPartExamined": "BRAIN",
        "Columns": 936,
        "EchoNumbers": 1,
        "EchoTime": 37.0,
        "EchoTrainLength": 104,
        "FlipAngle": 68.0,
        "HighBit": 15,
        "ImageOrientationPatient": [
          0.99852830026932,
          0.00292710608909,
          0.05415409136158,
          0.01132844359189,
          0.9652575224754,
          -0.2610547484158
        ],
        "ImagePositionPatient": [
          -951.08609740043,
          -932.15898372308,
          161.44985133697
        ],
        "ImageType": [
          "ORIGINAL",
          "PRIMARY",
          "FMRI",
          "NONE",
          "MB",
          "ND",
          "MOSAIC"
        ],
        "ImagedNucleus": "1H",
        "ImagingFrequency": 123.190992,
        "InPlanePhaseEncodingDirection": "COL",
        "MRAcquisitionType": "2D",
        "MagneticFieldStrength": 3.0,
        "Manufacturer": "SIEMENS",
        "ManufacturerModelName": "Prisma",
        "Modality": "MR",
        "NumberOfAverages": 1.0,
        "NumberOfPhaseEncodingSteps": 104,
        "PercentPhaseFieldOfView": 100.0,
        "PercentSampling": 100.0,
        "PerformedProcedureStepStartTime": "161503.964000",
        "PhotometricInterpretation": "MONOCHROME2",
        "PixelBandwidth": 2290.0,
        "PixelRepresentation": 0,
        "PixelSpacing": [
          2.0,
          2.0
        ],
        "ProtocolName": "cmrr_mbepi_s6_2mm_66sl_PA_task-prf",
        "RepetitionTime": 1000.0,
        "Rows": 936,
        "SAR": 0.0751342209519,
        "SamplesPerPixel": 1,
        "ScanOptions": "FS",
        "ScanningSequence": "EP",
        "SequenceName": "epfid2d1_104",
        "SequenceVariant": [
          "SK",
          "SS"
        ],
        "SeriesDescription": "cmrr_mbepi_s6_2mm_66sl_PA_task-prf",
        "SeriesNumber": 38,
        "SeriesTime": "165836.638000",
        "SliceLocation": -37.509738888644,
        "SliceThickness": 2.0,
        "SmallestImagePixelValue": 0,
        "SoftwareVersions": "syngo MR E11",
        "SpacingBetweenSlices": 2.0000000737764,
        "SpecificCharacterSet": "ISO_IR 100",
        "StudyID": "1",
        "StudyTime": "161503.852000",
        "TransmitCoilName": "Body",
        "VariableFlipAngleFlag": "N",
        "WindowCenterWidthExplanation": "Algo1",
        "dBdt": 0.0
      },
      "slices": {}
    },
    "modality": "bold",
    "run_id": 6,
    "session_id": "nyu3t01",
    "subject_id": "wlsubj088",
    "task_id": "prf",
    "time": {
      "samples": {
        "AcquisitionNumber": [
          1,
          2,
          3,
          4,
          5,
          6,
          7,
          8,
          9,
          10,
          11,
          12,
          13,
          14,
          15,
          16,
          17,
          18,
          19,
          20,
          21,
          22,
          23,
          24,
          25,
          26,
          27,
          28,
          29,
          30,
          31,
          32,
          33,
          34,
          35,
          36,
          37,
          38,
          39,
          40,
          41,
          42,
          43,
          44,
          45,
          46,
          47,
          48,
          49,
          50,
          51,
          52,
          53,
          54,
          55,
          56,
          57,
          58,
          59,
          60,
          61,
          62,
          63,
          64,
          65,
          66,
          67,
          68,
          69,
          70,
          71,
          72,
          73,
          74,
          75,
          76,
          77,
          78,
          79,
          80,
          81,
          82,
          83,
          84,
          85,
          86,
          87,
          88,
          89,
          90,
          91,
          92,
          93,
          94,
          95,
          96,
          97,
          98,
          99,
          100,
          101,
          102,
          103,
          104,
          105,
          106,
          107,
          108,
          109,
          110,
          111,
          112,
          113,
          114,
          115,
          116,
          117,
          118,
          119,
          120,
          121,
          122,
          123,
          124,
          125,
          126,
          127,
          128,
          129,
          130,
          131,
          132,
          133,
          134,
          135,
          136,
          137,
          138,
          139,
          140,
          141,
          142,
          143,
          144,
          145,
          146,
          147,
          148,
          149,
          150,
          151,
          152,
          153,
          154,
          155,
          156,
          157,
          158,
          159,
          160,
          161,
          162,
          163,
          164,
          165,
          166,
          167,
          168,
          169,
          170,
          171,
          172,
          173,
          174,
          175,
          176,
          177,
          178,
          179,
          180,
          181,
          182,
          183,
          184,
          185,
          186,
          187,
          188,
          189,
          190,
          191,
          192
        ],
        "AcquisitionTime": [
          "165740.507500",
          "165741.507500",
          "165742.507500",
          "165743.507500",
          "165744.507500",
          "165745.507500",
          "165746.507500",
          "165747.507500",
          "165748.507500",
          "165749.507500",
          "165750.507500",
          "165751.507500",
          "165752.507500",
          "165753.507500",
          "165754.507500",
          "165755.507500",
          "165756.507500",
          "165757.507500",
          "165758.507500",
          "165759.507500",
          "165800.507500",
          "165801.507500",
          "165802.507500",
          "165803.507500",
          "165804.507500",
          "165805.507500",
          "165806.507500",
          "165807.507500",
          "165808.507500",
          "165809.507500",
          "165810.507500",
          "165811.507500",
          "165812.507500",
          "165813.507500",
          "165814.507500",
          "165815.507500",
          "165816.507500",
          "165817.507500",
          "165818.507500",
          "165819.507500",
          "165820.507500",
          "165821.507500",
          "165822.507500",
          "165823.507500",
          "165824.507500",
          "165825.507500",
          "165826.507500",
          "165827.507500",
          "165828.507500",
          "165829.507500",
          "165830.507500",
          "165831.507500",
          "165832.507500",
          "165833.507500",
          "165834.507500",
          "165835.507500",
          "165836.507500",
          "165837.507500",
          "165838.507500",
          "165839.507500",
          "165840.507500",
          "165841.507500",
          "165842.507500",
          "165843.507500",
          "165844.507500",
          "165845.507500",
          "165846.507500",
          "165847.507500",
          "165848.507500",
          "165849.507500",
          "165850.507500",
          "165851.507500",
          "165852.507500",
          "165853.507500",
          "165854.507500",
          "165855.507500",
          "165856.507500",
          "165857.507500",
          "165858.507500",
          "165859.507500",
          "165900.507500",
          "165901.507500",
          "165902.507500",
          "165903.507500",
          "165904.507500",
          "165905.507500",
          "165906.507500",
          "165907.507500",
          "165908.507500",
          "165909.507500",
          "165910.507500",
          "165911.507500",
          "165912.507500",
          "165913.507500",
          "165914.507500",
          "165915.507500",
          "165916.507500",
          "165917.507500",
          "165918.507500",
          "165919.507500",
          "165920.507500",
          "165921.507500",
          "165922.507500",
          "165923.507500",
          "165924.507500",
          "165925.507500",
          "165926.507500",
          "165927.507500",
          "165928.507500",
          "165929.507500",
          "165930.507500",
          "165931.507500",
          "165932.507500",
          "165933.507500",
          "165934.507500",
          "165935.507500",
          "165936.507500",
          "165937.507500",
          "165938.507500",
          "165939.507500",
          "165940.507500",
          "165941.507500",
          "165942.507500",
          "165943.507500",
          "165944.507500",
          "165945.507500",
          "165946.507500",
          "165947.507500",
          "165948.507500",
          "165949.507500",
          "165950.507500",
          "165951.507500",
          "165952.507500",
          "165953.507500",
          "165954.507500",
          "165955.507500",
          "165956.507500",
          "165957.507500",
          "165958.507500",
          "165959.507500",
          "170000.507500",
          "170001.507500",
          "170002.507500",
          "170003.507500",
          "170004.507500",
          "170005.507500",
          "170006.507500",
          "170007.507500",
          "170008.507500",
          "170009.507500",
          "170010.507500",
          "170011.507500",
          "170012.507500",
          "170013.507500",
          "170014.507500",
          "170015.507500",
          "170016.507500",
          "170017.507500",
          "170018.507500",
          "170019.507500",
          "170020.507500",
          "170021.507500",
          "170022.507500",
          "170023.507500",
          "170024.507500",
          "170025.507500",
          "170026.507500",
          "170027.507500",
          "170028.507500",
          "170029.507500",
          "170030.507500",
          "170031.507500",
          "170032.507500",
          "170033.507500",
          "170034.507500",
          "170035.507500",
          "170036.507500",
          "170037.507500",
          "170038.507500",
          "170039.507500",
          "170040.507500",
          "170041.507500",
          "170042.507500",
          "170043.507500",
          "170044.507500",
          "170045.507500",
          "170046.507500",
          "170047.507500",
          "170048.507500",
          "170049.507500",
          "170050.507500",
          "170051.507500"
        ],
        "ContentTime": [
          "165836.641000",
          "165837.244000",
          "165837.952000",
          "165838.646000",
          "165839.372000",
          "165840.070000",
          "165840.771000",
          "165841.458000",
          "165842.238000",
          "165842.924000",
          "165843.629000",
          "165844.331000",
          "165845.028000",
          "165845.755000",
          "165846.505000",
          "165847.174000",
          "165847.901000",
          "165848.595000",
          "165849.303000",
          "165849.965000",
          "165850.697000",
          "165851.345000",
          "165852.103000",
          "165852.837000",
          "165853.651000",
          "165854.253000",
          "165854.978000",
          "165855.651000",
          "165856.352000",
          "165857.043000",
          "165857.807000",
          "165858.440000",
          "165859.193000",
          "165859.849000",
          "165900.579000",
          "165901.235000",
          "165901.934000",
          "165902.684000",
          "165903.386000",
          "165904.076000",
          "165904.920000",
          "165905.588000",
          "165906.347000",
          "165906.963000",
          "165907.733000",
          "165908.396000",
          "165909.143000",
          "165909.816000",
          "165910.552000",
          "165911.254000",
          "165911.950000",
          "165912.704000",
          "165913.410000",
          "165914.163000",
          "165914.837000",
          "165915.601000",
          "165916.246000",
          "165916.964000",
          "165917.649000",
          "165918.385000",
          "165919.047000",
          "165919.805000",
          "165920.467000",
          "165921.180000",
          "165921.854000",
          "165922.544000",
          "165923.234000",
          "165923.907000",
          "165924.660000",
          "165925.317000",
          "165926.099000",
          "165926.744000",
          "165927.480000",
          "165928.153000",
          "165928.923000",
          "165929.580000",
          "165930.321000",
          "165931.001000",
          "165931.705000",
          "165932.392000",
          "165933.094000",
          "165933.784000",
          "165934.491000",
          "165935.233000",
          "165935.884000",
          "165936.659000",
          "165937.327000",
          "165938.091000",
          "165938.747000",
          "165939.484000",
          "165940.151000",
          "165940.881000",
          "165941.583000",
          "165942.291000",
          "165943.009000",
          "165943.787000",
          "165944.488000",
          "165945.162000",
          "165945.891000",
          "165946.633000",
          "165947.306000",
          "165947.951000",
          "165948.704000",
          "165949.349000",
          "165950.097000",
          "165950.781000",
          "165951.489000",
          "165952.157000",
          "165952.875000",
          "165953.555000",
          "165954.353000",
          "165954.997000",
          "165955.813000",
          "165956.481000",
          "165957.211000",
          "165957.884000",
          "165958.655000",
          "165959.271000",
          "170000.012000",
          "170000.676000",
          "170001.412000",
          "170002.114000",
          "170002.809000",
          "170003.534000",
          "170004.237000",
          "170004.943000",
          "170005.657000",
          "170006.353000",
          "170007.123000",
          "170007.813000",
          "170008.544000",
          "170009.222000",
          "170009.976000",
          "170010.655000",
          "170011.374000",
          "170012.110000",
          "170012.834000",
          "170013.479000",
          "170014.233000",
          "170014.900000",
          "170015.979000",
          "170016.332000",
          "170017.057000",
          "170017.742000",
          "170018.513000",
          "170019.163000",
          "170019.905000",
          "170020.557000",
          "170021.314000",
          "170022.013000",
          "170022.794000",
          "170023.428000",
          "170024.175000",
          "170024.848000",
          "170025.601000",
          "170026.315000",
          "170027.005000",
          "170027.730000",
          "170028.409000",
          "170029.133000",
          "170029.801000",
          "170030.532000",
          "170031.240000",
          "170032.010000",
          "170032.666000",
          "170033.402000",
          "170034.064000",
          "170034.811000",
          "170035.485000",
          "170036.262000",
          "170037.021000",
          "170037.722000",
          "170038.481000",
          "170039.143000",
          "170039.908000",
          "170040.535000",
          "170041.272000",
          "170041.928000",
          "170042.670000",
          "170043.326000",
          "170043.988000",
          "170044.735000",
          "170045.392000",
          "170046.128000",
          "170046.773000",
          "170047.748000",
          "170048.736000",
          "170049.751000",
          "170050.727000",
          "170051.725000",
          "170052.735000",
          "170053.735000"
        ],
        "InstanceCreationTime": [
          "165836.641000",
          "165837.244000",
          "165837.952000",
          "165838.646000",
          "165839.372000",
          "165840.070000",
          "165840.771000",
          "165841.458000",
          "165842.238000",
          "165842.924000",
          "165843.629000",
          "165844.331000",
          "165845.028000",
          "165845.755000",
          "165846.505000",
          "165847.174000",
          "165847.901000",
          "165848.595000",
          "165849.303000",
          "165849.965000",
          "165850.697000",
          "165851.345000",
          "165852.103000",
          "165852.837000",
          "165853.651000",
          "165854.253000",
          "165854.978000",
          "165855.651000",
          "165856.352000",
          "165857.043000",
          "165857.807000",
          "165858.440000",
          "165859.193000",
          "165859.849000",
          "165900.579000",
          "165901.235000",
          "165901.934000",
          "165902.684000",
          "165903.386000",
          "165904.076000",
          "165904.920000",
          "165905.588000",
          "165906.347000",
          "165906.963000",
          "165907.733000",
          "165908.396000",
          "165909.143000",
          "165909.816000",
          "165910.552000",
          "165911.254000",
          "165911.950000",
          "165912.704000",
          "165913.410000",
          "165914.163000",
          "165914.837000",
          "165915.601000",
          "165916.246000",
          "165916.964000",
          "165917.649000",
          "165918.385000",
          "165919.047000",
          "165919.805000",
          "165920.467000",
          "165921.180000",
          "165921.854000",
          "165922.544000",
          "165923.234000",
          "165923.907000",
          "165924.660000",
          "165925.317000",
          "165926.099000",
          "165926.744000",
          "165927.480000",
          "165928.153000",
          "165928.923000",
          "165929.580000",
          "165930.321000",
          "165931.001000",
          "165931.705000",
          "165932.392000",
          "165933.094000",
          "165933.784000",
          "165934.491000",
          "165935.233000",
          "165935.884000",
          "165936.659000",
          "165937.327000",
          "165938.091000",
          "165938.747000",
          "165939.484000",
          "165940.151000",
          "165940.881000",
          "165941.583000",
          "165942.291000",
          "165943.009000",
          "165943.787000",
          "165944.488000",
          "165945.162000",
          "165945.891000",
          "165946.633000",
          "165947.306000",
          "165947.951000",
          "165948.704000",
          "165949.349000",
          "165950.097000",
          "165950.781000",
          "165951.489000",
          "165952.157000",
          "165952.875000",
          "165953.555000",
          "165954.353000",
          "165954.997000",
          "165955.813000",
          "165956.481000",
          "165957.211000",
          "165957.884000",
          "165958.655000",
          "165959.271000",
          "170000.012000",
          "170000.676000",
          "170001.412000",
          "170002.114000",
          "170002.809000",
          "170003.534000",
          "170004.237000",
          "170004.943000",
          "170005.657000",
          "170006.353000",
          "170007.123000",
          "170007.813000",
          "170008.544000",
          "170009.222000",
          "170009.976000",
          "170010.655000",
          "170011.374000",
          "170012.110000",
          "170012.834000",
          "170013.479000",
          "170014.233000",
          "170014.900000",
          "170015.979000",
          "170016.332000",
          "170017.057000",
          "170017.742000",
          "170018.513000",
          "170019.163000",
          "170019.905000",
          "170020.557000",
          "170021.314000",
          "170022.013000",
          "170022.794000",
          "170023.428000",
          "170024.175000",
          "170024.848000",
          "170025.601000",
          "170026.315000",
          "170027.005000",
          "170027.730000",
          "170028.409000",
          "170029.133000",
          "170029.801000",
          "170030.532000",
          "170031.240000",
          "170032.010000",
          "170032.666000",
          "170033.402000",
          "170034.064000",
          "170034.811000",
          "170035.485000",
          "170036.262000",
          "170037.021000",
          "170037.722000",
          "170038.481000",
          "170039.143000",
          "170039.908000",
          "170040.535000",
          "170041.272000",
          "170041.928000",
          "170042.670000",
          "170043.326000",
          "170043.988000",
          "170044.735000",
          "170045.392000",
          "170046.128000",
          "170046.773000",
          "170047.748000",
          "170048.736000",
          "170049.751000",
          "170050.727000",
          "170051.725000",
          "170052.735000",
          "170053.735000"
        ],
        "InstanceNumber": [
          1,
          2,
          3,
          4,
          5,
          6,
          7,
          8,
          9,
          10,
          11,
          12,
          13,
          14,
          15,
          16,
          17,
          18,
          19,
          20,
          21,
          22,
          23,
          24,
          25,
          26,
          27,
          28,
          29,
          30,
          31,
          32,
          33,
          34,
          35,
          36,
          37,
          38,
          39,
          40,
          41,
          42,
          43,
          44,
          45,
          46,
          47,
          48,
          49,
          50,
          51,
          52,
          53,
          54,
          55,
          56,
          57,
          58,
          59,
          60,
          61,
          62,
          63,
          64,
          65,
          66,
          67,
          68,
          69,
          70,
          71,
          72,
          73,
          74,
          75,
          76,
          77,
          78,
          79,
          80,
          81,
          82,
          83,
          84,
          85,
          86,
          87,
          88,
          89,
          90,
          91,
          92,
          93,
          94,
          95,
          96,
          97,
          98,
          99,
          100,
          101,
          102,
          103,
          104,
          105,
          106,
          107,
          108,
          109,
          110,
          111,
          112,
          113,
          114,
          115,
          116,
          117,
          118,
          119,
          120,
          121,
          122,
          123,
          124,
          125,
          126,
          127,
          128,
          129,
          130,
          131,
          132,
          133,
          134,
          135,
          136,
          137,
          138,
          139,
          140,
          141,
          142,
          143,
          144,
          145,
          146,
          147,
          148,
          149,
          150,
          151,
          152,
          153,
          154,
          155,
          156,
          157,
          158,
          159,
          160,
          161,
          162,
          163,
          164,
          165,
          166,
          167,
          168,
          169,
          170,
          171,
          172,
          173,
          174,
          175,
          176,
          177,
          178,
          179,
          180,
          181,
          182,
          183,
          184,
          185,
          186,
          187,
          188,
          189,
          190,
          191,
          192
        ],
        "LargestImagePixelValue": [
          40042,
          38550,
          38565,
          38089,
          38146,
          37369,
          37516,
          37175,
          37368,
          36969,
          37444,
          37064,
          37824,
          37536,
          36953,
          37776,
          37078,
          37441,
          37797,
          37843,
          36995,
          37690,
          37722,
          37318,
          37632,
          38402,
          37849,
          37858,
          37613,
          37658,
          38756,
          37721,
          37905,
          38718,
          37818,
          37901,
          37950,
          37302,
          37636,
          37560,
          37261,
          37608,
          37553,
          37212,
          37610,
          38395,
          38215,
          37652,
          38232,
          37390,
          37500,
          37963,
          37201,
          37502,
          37911,
          37170,
          37538,
          38084,
          37589,
          37557,
          38189,
          37663,
          37793,
          38255,
          38425,
          37743,
          38264,
          38573,
          37938,
          38726,
          38884,
          38421,
          38858,
          39546,
          38702,
          38874,
          39041,
          38808,
          38907,
          39228,
          38620,
