{
  "AcquisitionMatrixPE": 104,
  "AcquisitionNumber": 1,
  "AcquisitionTime": "15:56:30.502500",
  "BandwidthPerPixelPhaseEncode": 16.578,
  "BaseResolution": 104,
  "BodyPartExamined": "BRAIN",
  "ConsistencyInfo": "N4_VE11C_LATEST_20160120",
  "ConversionSoftware": "dcm2niix",
  "ConversionSoftwareVersion": "v1.0.20190902",
  "DerivedVendorReportedEchoSpacing": 0.000580009,
  "DeviceSerialNumber": "166018",
  "DwellTime": 2.1e-06,
  "EchoTime": 0.037,
  "EchoTrainLength": 104,
  "EffectiveEchoSpacing": 0.000580009,
  "FlipAngle": 68,
  "ImageComments": "Unaliased_MB6_PE3_LB",
  "ImageOrientationPatientDICOM": [0.996194, 0.0558761, 0.0669029, -0.0431464, 0.98299, -0.178519],
  "ImageType": [
    "ORIGINAL",
    "PRIMARY",
    "M",
    "MB",
    "ND",
    "MOSAIC"
],
  "ImagingFrequency": 123.191,
  "InPlanePhaseEncodingDirectionDICOM": "COL",
  "InstitutionAddress": "Washington_Place_6_NYC_NYC_US_10003",
  "InstitutionName": "NYU_-_CBI",
  "InstitutionalDepartmentName": "Department",
  "MRAcquisitionType": "2D",
  "MagneticFieldStrength": 3,
  "Manufacturer": "Siemens",
  "ManufacturersModelName": "Prisma",
  "Modality": "MR",
  "MultibandAccelerationFactor": 6,
  "PartialFourier": 1,
  "PatientPosition": "HFS",
  "PercentPhaseFOV": 100,
  "PhaseEncodingDirection": "j",
  "PhaseEncodingSteps": 104,
  "PhaseResolution": 1,
  "PixelBandwidth": 2290,
  "ProcedureStepDescription": "Investigators_Winawer",
  "ProtocolName": "cmrr_mbepi_s6_2mm_66sl_PA_task-prf",
  "PulseSequenceDetails": "%CustomerSeq%_cmrr_mbep2d_bold",
  "ReceiveCoilActiveElements": "HC1-7",
  "ReceiveCoilName": "HeadNeck_64",
  "ReconMatrixPE": 104,
  "RepetitionTime": 1,
  "SAR": 0.0774596,
  "ScanOptions": "FS",
  "ScanningSequence": "EP",
  "SequenceName": "epfid2d1_104",
  "SequenceVariant": "SK_SS",
  "SeriesDescription": "cmrr_mbepi_s6_2mm_66sl_PA_task-prf",
  "SeriesNumber": 18,
  "ShimSetting": [270, -12637, -8462, 307, -98, -163, -127, 8],
  "SliceThickness": 2,
  "SliceTiming": [0, 0.535, 0.09, 0.625, 0.18, 0.7125, 0.2675, 0.8025, 0.3575, 0.8925, 0.445, 0, 0.535, 0.09, 0.625, 0.18, 0.7125, 0.2675, 0.8025, 0.3575, 0.8925, 0.445, 0, 0.535, 0.09, 0.625, 0.18, 0.7125, 0.2675, 0.8025, 0.3575, 0.8925, 0.445, 0, 0.535, 0.09, 0.625, 0.18, 0.7125, 0.2675, 0.8025, 0.3575, 0.8925, 0.445, 0, 0.535, 0.09, 0.625, 0.18, 0.7125, 0.2675, 0.8025, 0.3575, 0.8925, 0.445, 0, 0.535, 0.09, 0.625, 0.18, 0.7125, 0.2675, 0.8025, 0.3575, 0.8925, 0.445],
  "SoftwareVersions": "syngo_MR_E11",
  "SpacingBetweenSlices": 2,
  "StationName": "AWP166018",
  "TaskName": "prf",
  "TotalReadoutTime": 0.0597409,
  "TxRefAmp": 236.358,
  "WipMemBlock": "4e5a90b2-191d-43cf-a7f6-2bac17c3373a||Sequence: R016 ve11c/master r/8780670; Nov 27 2017 15:05:12 by eja",
  "dcmmeta_affine": [
    [-1.9923874139785767, -0.08629276603460312, 0.15147976577281952, 112.37262725830078],
    [-0.11175215989351273, 1.965979814529419, -0.3499065637588501, -61.655330657958984],
    [0.13380587100982666, 0.35703879594802856, 1.9633184671401978, -64.42306518554688],
    [0.0, 0.0, 0.0, 1.0]
],
  "dcmmeta_reorient_transform": [
    [0.0, -1.0, 0.0, 103.0],
    [1.0, 0.0, 0.0, 0.0],
    [0.0, 0.0, 1.0, 0.0],
    [0.0, 0.0, 0.0, 1.0]
],
  "dcmmeta_shape": [104, 104, 66, 192],
  "dcmmeta_slice_dim": 2,
  "dcmmeta_version": 0.6,
  "global": {
    "const": {
      "AccessionNumber": "K3OVXJG2",
      "AcquisitionMatrix": [104, 0, 0, 104],
      "AngioFlag": "N",
      "BitsAllocated": 16,
      "BitsStored": 16,
      "BodyPartExamined": "BRAIN",
      "Columns": 936,
      "EchoNumbers": 1,
      "EchoTime": 37.0,
      "EchoTrainLength": 104,
      "FlipAngle": 68.0,
      "HighBit": 15,
      "ImageOrientationPatient": [0.99619368619562, 0.05587608117034, 0.06690293817938, -0.0431463823089, 0.98298993700032, -0.1785193923633],
      "ImagePositionPatient": [-896.419826811, -1005.1771235864, 65.216817491896],
      "ImageType": [
        "ORIGINAL",
        "PRIMARY",
        "M",
        "MB",
        "ND",
        "MOSAIC"
],
      "ImagedNucleus": "1H",
      "ImagingFrequency": 123.190849,
      "InPlanePhaseEncodingDirection": "COL",
      "MRAcquisitionType": "2D",
      "MagneticFieldStrength": 3.0,
      "Manufacturer": "SIEMENS",
      "ManufacturerModelName": "Prisma",
      "Modality": "MR",
      "NumberOfAverages": 1.0,
      "NumberOfPhaseEncodingSteps": 104,
      "PercentPhaseFieldOfView": 100.0,
      "PercentSampling": 100.0,
      "PerformedProcedureStepStartTime": "152235.370000",
      "PhotometricInterpretation": "MONOCHROME2",
      "PixelBandwidth": 2290.0,
      "PixelRepresentation": 0,
      "PixelSpacing": [2.0, 2.0],
      "ProtocolName": "cmrr_mbepi_s6_2mm_66sl_PA_task-prf",
      "RepetitionTime": 1000.0,
      "Rows": 936,
      "SAR": 0.07745955755663,
      "SamplesPerPixel": 1,
      "ScanOptions": "FS",
      "ScanningSequence": "EP",
      "SequenceName": "epfid2d1_104",
      "SequenceVariant": [
        "SK",
        "SS"
],
      "SeriesDescription": "cmrr_mbepi_s6_2mm_66sl_PA_task-prf",
      "SeriesNumber": 18,
      "SeriesTime": "155744.612000",
      "SliceLocation": -43.943607078398,
      "SliceThickness": 2.0,
      "SmallestImagePixelValue": 0,
      "SoftwareVersions": "syngo MR E11",
      "SpacingBetweenSlices": 2.0000000779509,
      "SpecificCharacterSet": "ISO_IR 100",
      "StudyID": "1",
      "StudyTime": "152235.317000",
      "TransmitCoilName": "Body",
      "VariableFlipAngleFlag": "N",
      "WindowCenterWidthExplanation": "Algo1",
      "dBdt": 0.0},
    "slices": {}
  },
  "time": {
    "samples": {
      "AcquisitionNumber": [1, 2, 3, 4, 5, 6, 7, 8, 9, 10, 11, 12, 13, 14, 15, 16, 17, 18, 19, 20, 21, 22, 23, 24, 25, 26, 27, 28, 29, 30, 31, 32, 33, 34, 35, 36, 37, 38, 39, 40, 41, 42, 43, 44, 45, 46, 47, 48, 49, 50, 51, 52, 53, 54, 55, 56, 57, 58, 59, 60, 61, 62, 63, 64, 65, 66, 67, 68, 69, 70, 71, 72, 73, 74, 75, 76, 77, 78, 79, 80, 81, 82, 83, 84, 85, 86, 87, 88, 89, 90, 91, 92, 93, 94, 95, 96, 97, 98, 99, 100, 101, 102, 103, 104, 105, 106, 107, 108, 109, 110, 111, 112, 113, 114, 115, 116, 117, 118, 119, 120, 121, 122, 123, 124, 125, 126, 127, 128, 129, 130, 131, 132, 133, 134, 135, 136, 137, 138, 139, 140, 141, 142, 143, 144, 145, 146, 147, 148, 149, 150, 151, 152, 153, 154, 155, 156, 157, 158, 159, 160, 161, 162, 163, 164, 165, 166, 167, 168, 169, 170, 171, 172, 173, 174, 175, 176, 177, 178, 179, 180, 181, 182, 183, 184, 185, 186, 187, 188, 189, 190, 191, 192],
      "AcquisitionTime": ["155630.502500", "155631.502500", "155632.502500", "155633.502500", "155634.502500", "155635.502500", "155636.502500", "155637.502500", "155638.502500", "155639.502500", "155640.502500", "155641.502500", "155642.502500", "155643.502500", "155644.502500", "155645.502500", "155646.502500", "155647.502500", "155648.502500", "155649.502500", "155650.502500", "155651.502500", "155652.502500", "155653.502500", "155654.502500", "155655.502500", "155656.502500", "155657.502500", "155658.502500", "155659.502500", "155700.502500", "155701.502500", "155702.502500", "155703.502500", "155704.502500", "155705.502500", "155706.502500", "155707.502500", "155708.502500", "155709.502500", "155710.502500", "155711.502500", "155712.502500", "155713.502500", "155714.502500", "155715.502500", "155716.502500", "155717.502500", "155718.502500", "155719.502500", "155720.502500", "155721.502500", "155722.502500", "155723.502500", "155724.502500", "155725.502500", "155726.502500", "155727.502500", "155728.502500", "155729.502500", "155730.502500", "155731.502500", "155732.502500", "155733.502500", "155734.502500", "155735.502500", "155736.502500", "155737.502500", "155738.502500", "155739.502500", "155740.502500", "155741.502500", "155742.502500", "155743.502500", "155744.502500", "155745.502500", "155746.502500", "155747.502500", "155748.502500", "155749.502500", "155750.502500", "155751.502500", "155752.502500", "155753.502500", "155754.502500", "155755.502500", "155756.502500", "155757.502500", "155758.502500", "155759.502500", "155800.502500", "155801.502500", "155802.502500", "155803.502500", "155804.502500", "155805.502500", "155806.502500", "155807.502500", "155808.502500", "155809.502500", "155810.502500", "155811.502500", "155812.502500", "155813.502500", "155814.502500", "155815.502500", "155816.502500", "155817.502500", "155818.502500", "155819.502500", "155820.502500", "155821.502500", "155822.502500", "155823.502500", "155824.502500", "155825.502500", "155826.502500", "155827.502500", "155828.502500", "155829.502500", "155830.502500", "155831.502500", "155832.502500", "155833.502500", "155834.502500", "155835.502500", "155836.502500", "155837.502500", "155838.502500", "155839.502500", "155840.502500", "155841.502500", "155842.502500", "155843.502500", "155844.502500", "155845.502500", "155846.502500", "155847.502500", "155848.502500", "155849.502500", "155850.502500", "155851.502500", "155852.502500", "155853.502500", "155854.502500", "155855.502500", "155856.502500", "155857.502500", "155858.502500", "155859.502500", "155900.502500", "155901.502500", "155902.502500", "155903.502500", "155904.502500", "155905.502500", "155906.502500", "155907.502500", "155908.502500", "155909.502500", "155910.502500", "155911.502500", "155912.502500", "155913.502500", "155914.502500", "155915.502500", "155916.502500", "155917.502500", "155918.502500", "155919.502500", "155920.502500", "155921.502500", "155922.502500", "155923.502500", "155924.502500", "155925.502500", "155926.502500", "155927.502500", "155928.502500", "155929.502500", "155930.502500", "155931.502500", "155932.502500", "155933.502500", "155934.502500", "155935.502500", "155936.502500", "155937.502500", "155938.502500", "155939.502500", "155940.502500", "155941.502500"],
      "ContentTime": ["155744.614000", "155744.618000", "155744.621000", "155744.624000", "155744.627000", "155744.630000", "155744.641000", "155744.644000", "155744.647000", "155744.649000", "155744.653000", "155744.655000", "155744.658000", "155744.661000", "155744.664000", "155744.667000", "155744.670000", "155744.673000", "155744.682000", "155744.684000", "155744.687000", "155744.693000", "155744.696000", "155744.699000", "155744.702000", "155744.706000", "155744.710000", "155744.713000", "155744.716000", "155744.719000", "155744.722000", "155744.725000", "155744.728000", "155744.731000", "155804.587000", "155804.590000", "155804.593000", "155804.596000", "155804.599000", "155804.602000", "155804.605000", "155804.608000", "155804.611000", "155804.614000", "155804.617000", "155804.619000", "155804.622000", "155804.625000", "155804.630000", "155804.633000", "155804.636000", "155804.639000", "155804.642000", "155804.645000", "155804.648000", "155804.651000", "155804.654000", "155804.657000", "155804.660000", "155804.663000", "155804.665000", "155804.668000", "155804.671000", "155824.587000", "155824.590000", "155824.593000", "155824.596000", "155824.599000", "155824.602000", "155824.604000", "155824.607000", "155824.610000", "155824.613000", "155824.616000", "155824.619000", "155824.622000", "155824.625000", "155824.628000", "155824.631000", "155824.634000", "155824.637000", "155824.640000", "155824.642000", "155824.645000", "155824.648000", "155824.651000", "155824.654000", "155824.657000", "155824.660000", "155824.664000", "155824.667000", "155844.586000", "155844.589000", "155844.592000", "155844.595000", "155844.598000", "155844.601000", "155844.604000", "155844.607000", "155844.610000", "155844.612000", "155844.615000", "155844.618000", "155844.621000", "155844.624000", "155844.627000", "155844.630000", "155844.634000", "155844.637000", "155844.640000", "155844.643000", "155844.647000", "155844.650000", "155844.653000", "155844.656000", "155844.659000", "155844.662000", "155844.665000", "155844.668000", "155904.587000", "155904.590000", "155904.593000", "155904.596000", "155904.599000", "155904.602000", "155904.605000", "155904.608000", "155904.611000", "155904.614000", "155904.617000", "155904.620000", "155904.622000", "155904.625000", "155904.628000", "155904.631000", "155904.634000", "155904.637000", "155904.640000", "155904.643000", "155904.646000", "155904.649000", "155904.652000", "155904.655000", "155904.658000", "155904.660000", "155904.664000", "155904.666000", "155904.669000", "155924.587000", "155924.590000", "155924.593000", "155924.597000", "155924.600000", "155924.602000", "155924.605000", "155924.611000", "155924.614000", "155924.617000", "155924.620000", "155924.623000", "155924.626000", "155924.629000", "155924.632000", "155924.635000", "155924.638000", "155924.641000", "155924.644000", "155924.647000", "155924.650000", "155924.653000", "155924.656000", "155924.659000", "155924.662000", "155942.976000", "155942.980000", "155942.983000", "155942.987000", "155943.001000", "155943.004000", "155943.007000", "155943.010000", "155943.013000", "155943.016000", "155943.019000", "155943.023000", "155943.026000", "155943.029000", "155943.034000", "155943.037000", "155943.041000", "155943.045000", "155943.049000"],
      "InstanceCreationTime": ["155744.614000", "155744.618000", "155744.621000", "155744.624000", "155744.627000", "155744.630000", "155744.641000", "155744.644000", "155744.647000", "155744.649000", "155744.653000", "155744.655000", "155744.658000", "155744.661000", "155744.664000", "155744.667000", "155744.670000", "155744.673000", "155744.682000", "155744.684000", "155744.687000", "155744.693000", "155744.696000", "155744.699000", "155744.702000", "155744.706000", "155744.710000", "155744.713000", "155744.716000", "155744.719000", "155744.722000", "155744.725000", "155744.728000", "155744.731000", "155804.587000", "155804.590000", "155804.593000", "155804.596000", "155804.599000", "155804.602000", "155804.605000", "155804.608000", "155804.611000", "155804.614000", "155804.617000", "155804.619000", "155804.622000", "155804.625000", "155804.630000", "155804.633000", "155804.636000", "155804.639000", "155804.642000", "155804.645000", "155804.648000", "155804.651000", "155804.654000", "155804.657000", "155804.660000", "155804.663000", "155804.665000", "155804.668000", "155804.671000", "155824.587000", "155824.590000", "155824.593000", "155824.596000", "155824.599000", "155824.602000", "155824.604000", "155824.607000", "155824.610000", "155824.613000", "155824.616000", "155824.619000", "155824.622000", "155824.625000", "155824.628000", "155824.631000", "155824.634000", "155824.637000", "155824.640000", "155824.642000", "155824.645000", "155824.648000", "155824.651000", "155824.654000", "155824.657000", "155824.660000", "155824.664000", "155824.667000", "155844.586000", "155844.589000", "155844.592000", "155844.595000", "155844.598000", "155844.601000", "155844.604000", "155844.607000", "155844.610000", "155844.612000", "155844.615000", "155844.618000", "155844.621000", "155844.624000", "155844.627000", "155844.630000", "155844.634000", "155844.637000", "155844.640000", "155844.643000", "155844.647000", "155844.650000", "155844.653000", "155844.656000", "155844.659000", "155844.662000", "155844.665000", "155844.668000", "155904.587000", "155904.590000", "155904.593000", "155904.596000", "155904.599000", "155904.602000", "155904.605000", "155904.608000", "155904.611000", "155904.614000", "155904.617000", "155904.620000", "155904.622000", "155904.625000", "155904.628000", "155904.631000", "155904.634000", "155904.637000", "155904.640000", "155904.643000", "155904.646000", "155904.649000", "155904.652000", "155904.655000", "155904.658000", "155904.660000", "155904.664000", "155904.666000", "155904.669000", "155924.587000", "155924.590000", "155924.593000", "155924.597000", "155924.600000", "155924.602000", "155924.605000", "155924.611000", "155924.614000", "155924.617000", "155924.620000", "155924.623000", "155924.626000", "155924.629000", "155924.632000", "155924.635000", "155924.638000", "155924.641000", "155924.644000", "155924.647000", "155924.650000", "155924.653000", "155924.656000", "155924.659000", "155924.662000", "155942.976000", "155942.980000", "155942.983000", "155942.987000", "155943.001000", "155943.004000", "155943.007000", "155943.010000", "155943.013000", "155943.016000", "155943.019000", "155943.023000", "155943.026000", "155943.029000", "155943.034000", "155943.037000", "155943.041000", "155943.045000", "155943.049000"],
      "InstanceNumber": [1, 2, 3, 4, 5, 6, 7, 8, 9, 10, 11, 12, 13, 14, 15, 16, 17, 18, 19, 20, 21, 22, 23, 24, 25, 26, 27, 28, 29, 30, 31, 32, 33, 34, 35, 36, 37, 38, 39, 40, 41, 42, 43, 44, 45, 46, 47, 48, 49, 50, 51, 52, 53, 54, 55, 56, 57, 58, 59, 60, 61, 62, 63, 64, 65, 66, 67, 68, 69, 70, 71, 72, 73, 74, 75, 76, 77, 78, 79, 80, 81, 82, 83, 84, 85, 86, 87, 88, 89, 90, 91, 92, 93, 94, 95, 96, 97, 98, 99, 100, 101, 102, 103, 104, 105, 106, 107, 108, 109, 110, 111, 112, 113, 114, 115, 116, 117, 118, 119, 120, 121, 122, 123, 124, 125, 126, 127, 128, 129, 130, 131, 132, 133, 134, 135, 136, 137, 138, 139, 140, 141, 142, 143, 144, 145, 146, 147, 148, 149, 150, 151, 152, 153, 154, 155, 156, 157, 158, 159, 160, 161, 162, 163, 164, 165, 166, 167, 168, 169, 170, 171, 172, 173, 174, 175, 176, 177, 178, 179, 180, 181, 182, 183, 184, 185, 186, 187, 188, 189, 190, 191, 192],
      "LargestImagePixelValue": [39847, 39488, 40389, 37751, 36327, 35229, 41124, 36808, 35209, 35329, 39434, 35048, 35167, 36041, 35550, 36035, 39313, 37357, 37200, 39272, 37174, 35244, 40791, 35076, 34432, 37777, 39975, 38618, 37303, 37395, 34567, 41114, 35366, 35207, 37920, 36245, 34905, 35304, 34106, 36139, 37639, 39891, 36322, 36315, 36505, 37098, 34707, 38184, 39340, 39322, 35034, 41487, 37255, 37382, 40350, 35008, 33778, 34878, 36136, 35418, 36736, 34246, 38251, 38845, 37262, 34912, 37560, 35578, 41490, 36594, 36807, 36626, 34629, 38363, 39378, 38844, 35133, 33863, 40874, 37731, 37563, 38037, 34862, 41407, 35324, 36828, 36570, 35494, 36829, 42995, 38455, 39367, 36971, 36715, 35438, 34042, 33508, 36121, 37184, 38349, 39004, 39842, 40969, 36986, 37526, 35481, 38563, 35509, 35626, 36251, 37338, 37548, 36197, 38939, 37331, 38589, 36279, 36886, 35725, 42153, 36651, 39814, 43230, 42122, 39381, 41079, 37248, 40877, 38443, 37848, 37480, 39657, 41527, 39151, 37720, 41347, 39127, 36900, 36340, 35712, 35309, 34612, 43506, 42037, 37866, 38104, 39815, 37248, 34130, 45454, 38388, 37464, 41151, 42263, 40177, 38560, 36563, 38232, 35053, 35609, 39853, 40565, 37444, 36116, 39071, 36797, 36014, 37845, 37238, 40340, 38361, 40873, 37270, 39845, 38481, 44240, 38586, 38353, 46486, 42316, 38538, 37213, 35363, 41531, 41581, 37653, 37497, 45551, 39196, 35154, 38388, 40531],
      "WindowCenter": [10151.0, 10112.0, 10099.0, 10057.0, 10035.0, 10024.0, 10108.0, 10067.0, 10045.0, 10054.0, 10115.0, 10073.0, 10077.0, 10087.0, 10073.0, 10068.0, 10081.0, 10067.0, 10046.0, 10095.0, 10090.0, 10077.0, 10125.0, 10064.0, 10049.0, 10070.0, 10092.0, 10071.0, 10037.0, 10044.0, 10009.0, 10084.0, 10029.0, 10016.0, 10048.0, 10016.0, 9990.0, 9987.0, 9990.0, 10020.0, 10045.0, 10082.0, 10047.0, 10035.0, 10037.0, 10041.0, 10003.0, 10033.0, 10041.0, 10038.0, 9985.0, 10074.0, 10042.0, 10043.0, 10080.0, 10029.0, 10020.0, 9989.0, 10016.0, 9956.0, 9996.0, 9963.0, 10007.0, 10006.0, 9984.0, 9955.0, 9991.0, 9970.0, 10032.0, 9966.0, 9963.0, 9948.0, 9942.0, 9986.0, 9985.0, 9984.0, 9940.0, 9934.0, 10009.0, 9976.0, 9966.0, 9985.0, 9943.0, 10010.0, 9935.0, 9937.0, 9921.0, 9901.0, 9913.0, 9983.0, 9941.0, 9932.0, 9926.0, 9920.0, 9924.0, 9935.0, 9934.0, 9974.0, 10000.0, 10023.0, 10026.0, 10029.0, 10035.0, 9973.0, 9981.0, 9958.0, 10003.0, 9972.0, 9973.0, 9986.0, 9988.0, 9985.0, 9976.0, 10010.0, 9994.0, 10013.0, 9975.0, 9989.0, 9980.0, 10046.0, 9985.0, 9990.0, 10025.0, 9999.0, 9966.0, 9998.0, 9957.0, 9986.0, 9960.0, 9962.0, 9956.0, 9973.0, 9986.0, 9953.0, 9935.0, 9976.0, 9961.0, 9929.0, 9914.0, 9932.0, 9938.0, 9933.0, 10036.0, 10010.0, 9949.0, 9942.0, 9970.0, 9944.0, 9905.0, 10039.0, 9993.0, 9986.0, 10024.0, 10027.0, 10001.0, 9979.0, 9952.0, 9959.0, 9913.0, 9936.0, 9968.0, 9975.0, 9911.0, 9908.0, 9935.0, 9901.0, 9877.0, 9910.0, 9908.0, 9949.0, 9933.0, 9958.0, 9918.0, 9938.0, 9918.0, 9969.0, 9918.0, 9927.0, 10014.0, 9991.0, 9961.0, 9964.0, 9938.0, 9998.0, 10018.0, 9982.0, 9982.0, 10044.0, 9971.0, 9910.0, 9945.0, 9973.0],
      "WindowWidth": [21680.0, 21562.0, 21507.0, 21421.0, 21369.0, 21346.0, 21505.0, 21436.0, 21392.0, 21412.0, 21529.0, 21455.0, 21468.0, 21486.0, 21460.0, 21441.0, 21455.0, 21436.0, 21387.0, 21491.0, 21482.0, 21463.0, 21547.0, 21431.0, 21399.0, 21433.0, 21470.0, 21426.0, 21358.0, 21377.0, 21309.0, 21454.0, 21353.0, 21328.0, 21386.0, 21319.0, 21270.0, 21260.0, 21270.0, 21328.0, 21374.0, 21460.0, 21387.0, 21369.0, 21363.0, 21365.0, 21293.0, 21345.0, 21365.0, 21364.0, 21262.0, 21425.0, 21375.0, 21367.0, 21439.0, 21353.0, 21337.0, 21262.0, 21312.0, 21170.0, 21249.0, 21193.0, 21271.0, 21271.0, 21228.0, 21175.0, 21244.0, 21207.0, 21319.0, 21197.0, 21185.0, 21154.0, 21153.0, 21233.0, 21228.0, 21232.0, 21137.0, 21133.0, 21269.0, 21205.0, 21188.0, 21237.0, 21152.0, 21274.0, 21132.0, 21131.0, 21096.0, 21058.0, 21078.0, 21221.0, 21133.0, 21111.0, 21112.0, 21088.0, 21111.0, 21140.0, 21141.0, 21216.0, 21273.0, 21312.0, 21323.0, 21324.0, 21335.0, 21206.0, 21226.0, 21183.0, 21266.0, 21211.0, 21216.0, 21245.0, 21240.0, 21230.0, 21216.0, 21282.0, 21253.0, 21292.0, 21216.0, 21247.0, 21232.0, 21350.0, 21242.0, 21234.0, 21303.0, 21243.0, 21175.0, 21253.0, 21172.0, 21219.0, 21176.0, 21181.0, 21173.0, 21205.0, 21225.0, 21156.0, 21117.0, 21195.0, 21172.0, 21106.0, 21089.0, 21129.0, 21145.0, 21140.0, 21326.0, 21273.0, 21154.0, 21135.0, 21200.0, 21146.0, 21076.0, 21318.0, 21248.0, 21236.0, 21305.0, 21308.0, 21250.0, 21214.0, 21163.0, 21171.0, 21088.0, 21138.0, 21187.0, 21197.0, 21062.0, 21063.0, 21103.0, 21037.0, 20989.0, 21060.0, 21064.0, 21137.0, 21122.0, 21160.0, 21089.0, 21124.0, 21084.0, 21176.0, 21085.0, 21110.0, 21264.0, 21231.0, 21188.0, 21202.0, 21151.0, 21249.0, 21295.0, 21239.0, 21242.0, 21342.0, 21209.0, 21078.0, 21143.0, 21196.0]
    },
    "slices": {}
  },
  "NumberOfVolumes": 192
}