{
  "AcquisitionMatrixPE": 104,
  "AcquisitionNumber": 1,
  "AcquisitionTime": "15:51:13.487500",
  "BandwidthPerPixelPhaseEncode": 16.578,
  "BaseResolution": 104,
  "BodyPartExamined": "BRAIN",
  "ConsistencyInfo": "N4_VE11C_LATEST_20160120",
  "ConversionSoftware": "dcm2niix",
  "ConversionSoftwareVersion": "v1.0.20190902",
  "DerivedVendorReportedEchoSpacing": 0.000580009,
  "DeviceSerialNumber": "166018",
  "DwellTime": 2.1e-06,
  "EchoTime": 0.037,
  "EchoTrainLength": 104,
  "EffectiveEchoSpacing": 0.000580009,
  "FlipAngle": 68,
  "ImageComments": "Unaliased_MB6_PE3_LB",
  "ImageOrientationPatientDICOM": [0.996194, 0.0558761, 0.0669029, -0.0431464, 0.98299, -0.178519],
  "ImageType": [
    "ORIGINAL",
    "PRIMARY",
    "M",
    "MB",
    "ND",
    "MOSAIC"
],
  "ImagingFrequency": 123.191,
  "InPlanePhaseEncodingDirectionDICOM": "COL",
  "InstitutionAddress": "Washington_Place_6_NYC_NYC_US_10003",
  "InstitutionName": "NYU_-_CBI",
  "InstitutionalDepartmentName": "Department",
  "MRAcquisitionType": "2D",
  "MagneticFieldStrength": 3,
  "Manufacturer": "Siemens",
  "ManufacturersModelName": "Prisma",
  "Modality": "MR",
  "MultibandAccelerationFactor": 6,
  "PartialFourier": 1,
  "PatientPosition": "HFS",
  "PercentPhaseFOV": 100,
  "PhaseEncodingDirection": "j",
  "PhaseEncodingSteps": 104,
  "PhaseResolution": 1,
  "PixelBandwidth": 2290,
  "ProcedureStepDescription": "Investigators_Winawer",
  "ProtocolName": "cmrr_mbepi_s6_2mm_66sl_PA_task-prf",
  "PulseSequenceDetails": "%CustomerSeq%_cmrr_mbep2d_bold",
  "ReceiveCoilActiveElements": "HC1-7",
  "ReceiveCoilName": "HeadNeck_64",
  "ReconMatrixPE": 104,
  "RepetitionTime": 1,
  "SAR": 0.0774596,
  "ScanOptions": "FS",
  "ScanningSequence": "EP",
  "SequenceName": "epfid2d1_104",
  "SequenceVariant": "SK_SS",
  "SeriesDescription": "cmrr_mbepi_s6_2mm_66sl_PA_task-prf",
  "SeriesNumber": 16,
  "ShimSetting": [270, -12637, -8462, 307, -98, -163, -127, 8],
  "SliceThickness": 2,
  "SliceTiming": [0, 0.535, 0.09, 0.6225, 0.1775, 0.7125, 0.2675, 0.8025, 0.355, 0.89, 0.445, 0, 0.535, 0.09, 0.6225, 0.1775, 0.7125, 0.2675, 0.8025, 0.355, 0.89, 0.445, 0, 0.535, 0.09, 0.6225, 0.1775, 0.7125, 0.2675, 0.8025, 0.355, 0.89, 0.445, 0, 0.535, 0.09, 0.6225, 0.1775, 0.7125, 0.2675, 0.8025, 0.355, 0.89, 0.445, 0, 0.535, 0.09, 0.6225, 0.1775, 0.7125, 0.2675, 0.8025, 0.355, 0.89, 0.445, 0, 0.535, 0.09, 0.6225, 0.1775, 0.7125, 0.2675, 0.8025, 0.355, 0.89, 0.445],
  "SoftwareVersions": "syngo_MR_E11",
  "SpacingBetweenSlices": 2,
  "StationName": "AWP166018",
  "TaskName": "prf",
  "TotalReadoutTime": 0.0597409,
  "TxRefAmp": 236.358,
  "WipMemBlock": "4e5a90b2-191d-43cf-a7f6-2bac17c3373a||Sequence: R016 ve11c/master r/8780670; Nov 27 2017 15:05:12 by eja",
  "dcmmeta_affine": [
    [-1.9923874139785767, -0.08629276603460312, 0.15147976577281952, 112.37262725830078],
    [-0.11175215989351273, 1.965979814529419, -0.3499065637588501, -61.655330657958984],
    [0.13380587100982666, 0.35703879594802856, 1.9633184671401978, -64.42306518554688],
    [0.0, 0.0, 0.0, 1.0]
],
  "dcmmeta_reorient_transform": [
    [0.0, -1.0, 0.0, 103.0],
    [1.0, 0.0, 0.0, 0.0],
    [0.0, 0.0, 1.0, 0.0],
    [0.0, 0.0, 0.0, 1.0]
],
  "dcmmeta_shape": [104, 104, 66, 192],
  "dcmmeta_slice_dim": 2,
  "dcmmeta_version": 0.6,
  "global": {
    "const": {
      "AccessionNumber": "K3OVXJG2",
      "AcquisitionMatrix": [104, 0, 0, 104],
      "AngioFlag": "N",
      "BitsAllocated": 16,
      "BitsStored": 16,
      "BodyPartExamined": "BRAIN",
      "Columns": 936,
      "EchoNumbers": 1,
      "EchoTime": 37.0,
      "EchoTrainLength": 104,
      "FlipAngle": 68.0,
      "HighBit": 15,
      "ImageOrientationPatient": [0.99619368619562, 0.05587608117034, 0.06690293817938, -0.0431463823089, 0.98298993700032, -0.1785193923633],
      "ImagePositionPatient": [-896.419826811, -1005.1771235864, 65.216817491896],
      "ImageType": [
        "ORIGINAL",
        "PRIMARY",
        "M",
        "MB",
        "ND",
        "MOSAIC"
],
      "ImagedNucleus": "1H",
      "ImagingFrequency": 123.190849,
      "InPlanePhaseEncodingDirection": "COL",
      "MRAcquisitionType": "2D",
      "MagneticFieldStrength": 3.0,
      "Manufacturer": "SIEMENS",
      "ManufacturerModelName": "Prisma",
      "Modality": "MR",
      "NumberOfAverages": 1.0,
      "NumberOfPhaseEncodingSteps": 104,
      "PercentPhaseFieldOfView": 100.0,
      "PercentSampling": 100.0,
      "PerformedProcedureStepStartTime": "152235.370000",
      "PhotometricInterpretation": "MONOCHROME2",
      "PixelBandwidth": 2290.0,
      "PixelRepresentation": 0,
      "PixelSpacing": [2.0, 2.0],
      "ProtocolName": "cmrr_mbepi_s6_2mm_66sl_PA_task-prf",
      "RepetitionTime": 1000.0,
      "Rows": 936,
      "SAR": 0.07745955755663,
      "SamplesPerPixel": 1,
      "ScanOptions": "FS",
      "ScanningSequence": "EP",
      "SequenceName": "epfid2d1_104",
      "SequenceVariant": [
        "SK",
        "SS"
],
      "SeriesDescription": "cmrr_mbepi_s6_2mm_66sl_PA_task-prf",
      "SeriesNumber": 16,
      "SeriesTime": "155215.561000",
      "SliceLocation": -43.943607078398,
      "SliceThickness": 2.0,
      "SmallestImagePixelValue": 0,
      "SoftwareVersions": "syngo MR E11",
      "SpacingBetweenSlices": 2.0000000779509,
      "SpecificCharacterSet": "ISO_IR 100",
      "StudyID": "1",
      "StudyTime": "152235.317000",
      "TransmitCoilName": "Body",
      "VariableFlipAngleFlag": "N",
      "WindowCenterWidthExplanation": "Algo1",
      "dBdt": 0.0},
    "slices": {}
  },
  "time": {
    "samples": {
      "AcquisitionNumber": [1, 2, 3, 4, 5, 6, 7, 8, 9, 10, 11, 12, 13, 14, 15, 16, 17, 18, 19, 20, 21, 22, 23, 24, 25, 26, 27, 28, 29, 30, 31, 32, 33, 34, 35, 36, 37, 38, 39, 40, 41, 42, 43, 44, 45, 46, 47, 48, 49, 50, 51, 52, 53, 54, 55, 56, 57, 58, 59, 60, 61, 62, 63, 64, 65, 66, 67, 68, 69, 70, 71, 72, 73, 74, 75, 76, 77, 78, 79, 80, 81, 82, 83, 84, 85, 86, 87, 88, 89, 90, 91, 92, 93, 94, 95, 96, 97, 98, 99, 100, 101, 102, 103, 104, 105, 106, 107, 108, 109, 110, 111, 112, 113, 114, 115, 116, 117, 118, 119, 120, 121, 122, 123, 124, 125, 126, 127, 128, 129, 130, 131, 132, 133, 134, 135, 136, 137, 138, 139, 140, 141, 142, 143, 144, 145, 146, 147, 148, 149, 150, 151, 152, 153, 154, 155, 156, 157, 158, 159, 160, 161, 162, 163, 164, 165, 166, 167, 168, 169, 170, 171, 172, 173, 174, 175, 176, 177, 178, 179, 180, 181, 182, 183, 184, 185, 186, 187, 188, 189, 190, 191, 192],
      "AcquisitionTime": ["155113.487500", "155114.487500", "155115.487500", "155116.487500", "155117.487500", "155118.487500", "155119.487500", "155120.487500", "155121.487500", "155122.487500", "155123.487500", "155124.487500", "155125.487500", "155126.487500", "155127.487500", "155128.487500", "155129.487500", "155130.487500", "155131.487500", "155132.487500", "155133.487500", "155134.487500", "155135.487500", "155136.487500", "155137.487500", "155138.487500", "155139.487500", "155140.487500", "155141.487500", "155142.487500", "155143.487500", "155144.487500", "155145.487500", "155146.487500", "155147.487500", "155148.487500", "155149.487500", "155150.487500", "155151.487500", "155152.487500", "155153.487500", "155154.487500", "155155.487500", "155156.487500", "155157.487500", "155158.487500", "155159.487500", "155200.487500", "155201.487500", "155202.487500", "155203.487500", "155204.487500", "155205.487500", "155206.487500", "155207.487500", "155208.487500", "155209.487500", "155210.487500", "155211.487500", "155212.487500", "155213.487500", "155214.487500", "155215.487500", "155216.487500", "155217.487500", "155218.487500", "155219.487500", "155220.487500", "155221.487500", "155222.487500", "155223.487500", "155224.487500", "155225.487500", "155226.487500", "155227.487500", "155228.487500", "155229.487500", "155230.487500", "155231.487500", "155232.487500", "155233.487500", "155234.487500", "155235.487500", "155236.487500", "155237.487500", "155238.487500", "155239.487500", "155240.487500", "155241.487500", "155242.487500", "155243.487500", "155244.487500", "155245.487500", "155246.487500", "155247.487500", "155248.487500", "155249.487500", "155250.487500", "155251.487500", "155252.487500", "155253.487500", "155254.487500", "155255.487500", "155256.487500", "155257.487500", "155258.487500", "155259.487500", "155300.487500", "155301.487500", "155302.487500", "155303.487500", "155304.487500", "155305.487500", "155306.487500", "155307.487500", "155308.487500", "155309.487500", "155310.487500", "155311.487500", "155312.487500", "155313.487500", "155314.487500", "155315.487500", "155316.487500", "155317.487500", "155318.487500", "155319.487500", "155320.487500", "155321.487500", "155322.487500", "155323.487500", "155324.487500", "155325.487500", "155326.487500", "155327.487500", "155328.487500", "155329.487500", "155330.487500", "155331.487500", "155332.487500", "155333.487500", "155334.487500", "155335.487500", "155336.487500", "155337.487500", "155338.487500", "155339.487500", "155340.487500", "155341.487500", "155342.487500", "155343.487500", "155344.487500", "155345.487500", "155346.487500", "155347.487500", "155348.487500", "155349.487500", "155350.487500", "155351.487500", "155352.487500", "155353.487500", "155354.487500", "155355.487500", "155356.487500", "155357.487500", "155358.487500", "155359.487500", "155400.487500", "155401.487500", "155402.487500", "155403.487500", "155404.487500", "155405.487500", "155406.487500", "155407.487500", "155408.487500", "155409.487500", "155410.487500", "155411.487500", "155412.487500", "155413.487500", "155414.487500", "155415.487500", "155416.487500", "155417.487500", "155418.487500", "155419.487500", "155420.487500", "155421.487500", "155422.487500", "155423.487500", "155424.487500"],
      "ContentTime": ["155215.563000", "155215.567000", "155215.571000", "155215.574000", "155215.577000", "155215.580000", "155215.583000", "155215.589000", "155215.592000", "155215.595000", "155215.598000", "155235.534000", "155235.537000", "155235.541000", "155235.545000", "155235.549000", "155235.552000", "155235.555000", "155235.558000", "155235.561000", "155235.564000", "155235.567000", "155235.570000", "155235.573000", "155235.577000", "155235.580000", "155235.583000", "155235.586000", "155235.589000", "155235.595000", "155235.598000", "155235.601000", "155235.604000", "155235.607000", "155235.610000", "155235.613000", "155235.616000", "155235.619000", "155235.622000", "155255.534000", "155255.537000", "155255.540000", "155255.543000", "155255.546000", "155255.549000", "155255.551000", "155255.554000", "155255.557000", "155255.560000", "155255.563000", "155255.566000", "155255.569000", "155255.572000", "155255.576000", "155255.579000", "155255.582000", "155255.585000", "155255.588000", "155255.591000", "155255.594000", "155255.597000", "155255.600000", "155255.603000", "155255.606000", "155255.609000", "155255.612000", "155255.614000", "155255.617000", "155315.535000", "155315.538000", "155315.541000", "155315.544000", "155315.547000", "155315.550000", "155315.553000", "155315.556000", "155315.559000", "155315.562000", "155315.564000", "155315.569000", "155315.572000", "155315.575000", "155315.581000", "155315.591000", "155315.594000", "155315.597000", "155315.600000", "155315.603000", "155315.606000", "155315.609000", "155315.612000", "155315.615000", "155315.617000", "155315.620000", "155315.623000", "155315.626000", "155335.534000", "155335.537000", "155335.540000", "155335.543000", "155335.546000", "155335.549000", "155335.552000", "155335.555000", "155335.558000", "155335.561000", "155335.564000", "155335.567000", "155335.571000", "155335.574000", "155335.577000", "155335.580000", "155335.583000", "155335.586000", "155335.589000", "155335.592000", "155335.595000", "155335.598000", "155335.601000", "155335.604000", "155335.606000", "155335.609000", "155335.612000", "155335.615000", "155355.534000", "155355.537000", "155355.540000", "155355.543000", "155355.546000", "155355.549000", "155355.552000", "155355.555000", "155355.558000", "155355.561000", "155355.564000", "155355.568000", "155355.571000", "155355.574000", "155355.577000", "155355.580000", "155355.583000", "155355.586000", "155355.589000", "155355.591000", "155355.594000", "155355.597000", "155355.600000", "155355.603000", "155355.606000", "155355.609000", "155355.612000", "155355.615000", "155355.618000", "155415.534000", "155415.537000", "155415.540000", "155415.543000", "155415.546000", "155415.549000", "155415.552000", "155415.555000", "155415.561000", "155415.564000", "155415.567000", "155415.570000", "155415.574000", "155415.577000", "155415.580000", "155415.583000", "155415.586000", "155415.589000", "155415.592000", "155415.595000", "155415.610000", "155415.613000", "155415.616000", "155415.619000", "155415.630000", "155415.633000", "155415.636000", "155415.639000", "155425.774000", "155425.779000", "155425.783000", "155425.788000", "155425.792000", "155425.797000", "155425.800000", "155425.803000", "155425.806000", "155425.809000", "155425.812000"],
      "InstanceCreationTime": ["155215.563000", "155215.567000", "155215.571000", "155215.574000", "155215.577000", "155215.580000", "155215.583000", "155215.589000", "155215.592000", "155215.595000", "155215.598000", "155235.534000", "155235.537000", "155235.541000", "155235.545000", "155235.549000", "155235.552000", "155235.555000", "155235.558000", "155235.561000", "155235.564000", "155235.567000", "155235.570000", "155235.573000", "155235.577000", "155235.580000", "155235.583000", "155235.586000", "155235.589000", "155235.595000", "155235.598000", "155235.601000", "155235.604000", "155235.607000", "155235.610000", "155235.613000", "155235.616000", "155235.619000", "155235.622000", "155255.534000", "155255.537000", "155255.540000", "155255.543000", "155255.546000", "155255.549000", "155255.551000", "155255.554000", "155255.557000", "155255.560000", "155255.563000", "155255.566000", "155255.569000", "155255.572000", "155255.576000", "155255.579000", "155255.582000", "155255.585000", "155255.588000", "155255.591000", "155255.594000", "155255.597000", "155255.600000", "155255.603000", "155255.606000", "155255.609000", "155255.612000", "155255.614000", "155255.617000", "155315.535000", "155315.538000", "155315.541000", "155315.544000", "155315.547000", "155315.550000", "155315.553000", "155315.556000", "155315.559000", "155315.562000", "155315.564000", "155315.569000", "155315.572000", "155315.575000", "155315.581000", "155315.591000", "155315.594000", "155315.597000", "155315.600000", "155315.603000", "155315.606000", "155315.609000", "155315.612000", "155315.615000", "155315.617000", "155315.620000", "155315.623000", "155315.626000", "155335.534000", "155335.537000", "155335.540000", "155335.543000", "155335.546000", "155335.549000", "155335.552000", "155335.555000", "155335.558000", "155335.561000", "155335.564000", "155335.567000", "155335.571000", "155335.574000", "155335.577000", "155335.580000", "155335.583000", "155335.586000", "155335.589000", "155335.592000", "155335.595000", "155335.598000", "155335.601000", "155335.604000", "155335.606000", "155335.609000", "155335.612000", "155335.615000", "155355.534000", "155355.537000", "155355.540000", "155355.543000", "155355.546000", "155355.549000", "155355.552000", "155355.555000", "155355.558000", "155355.561000", "155355.564000", "155355.568000", "155355.571000", "155355.574000", "155355.577000", "155355.580000", "155355.583000", "155355.586000", "155355.589000", "155355.591000", "155355.594000", "155355.597000", "155355.600000", "155355.603000", "155355.606000", "155355.609000", "155355.612000", "155355.615000", "155355.618000", "155415.534000", "155415.537000", "155415.540000", "155415.543000", "155415.546000", "155415.549000", "155415.552000", "155415.555000", "155415.561000", "155415.564000", "155415.567000", "155415.570000", "155415.574000", "155415.577000", "155415.580000", "155415.583000", "155415.586000", "155415.589000", "155415.592000", "155415.595000", "155415.610000", "155415.613000", "155415.616000", "155415.619000", "155415.630000", "155415.633000", "155415.636000", "155415.639000", "155425.774000", "155425.779000", "155425.783000", "155425.788000", "155425.792000", "155425.797000", "155425.800000", "155425.803000", "155425.806000", "155425.809000", "155425.812000"],
      "InstanceNumber": [1, 2, 3, 4, 5, 6, 7, 8, 9, 10, 11, 12, 13, 14, 15, 16, 17, 18, 19, 20, 21, 22, 23, 24, 25, 26, 27, 28, 29, 30, 31, 32, 33, 34, 35, 36, 37, 38, 39, 40, 41, 42, 43, 44, 45, 46, 47, 48, 49, 50, 51, 52, 53, 54, 55, 56, 57, 58, 59, 60, 61, 62, 63, 64, 65, 66, 67, 68, 69, 70, 71, 72, 73, 74, 75, 76, 77, 78, 79, 80, 81, 82, 83, 84, 85, 86, 87, 88, 89, 90, 91, 92, 93, 94, 95, 96, 97, 98, 99, 100, 101, 102, 103, 104, 105, 106, 107, 108, 109, 110, 111, 112, 113, 114, 115, 116, 117, 118, 119, 120, 121, 122, 123, 124, 125, 126, 127, 128, 129, 130, 131, 132, 133, 134, 135, 136, 137, 138, 139, 140, 141, 142, 143, 144, 145, 146, 147, 148, 149, 150, 151, 152, 153, 154, 155, 156, 157, 158, 159, 160, 161, 162, 163, 164, 165, 166, 167, 168, 169, 170, 171, 172, 173, 174, 175, 176, 177, 178, 179, 180, 181, 182, 183, 184, 185, 186, 187, 188, 189, 190, 191, 192],
      "LargestImagePixelValue": [38627, 40325, 36351, 35352, 38757, 35488, 34580, 39241, 35477, 38902, 34542, 34563, 37345, 34936, 36924, 35178, 39612, 41403, 38628, 39957, 37115, 35450, 40081, 36020, 39221, 34799, 43448, 40597, 38436, 39177, 38038, 36837, 37530, 37572, 41488, 38096, 46654, 34767, 44912, 39668, 36980, 38089, 35761, 40141, 40675, 47438, 39433, 35596, 40948, 39715, 36634, 38443, 40252, 37751, 38013, 37369, 37335, 36734, 41977, 42137, 38588, 38009, 43280, 41732, 43187, 38090, 37495, 38014, 38252, 37606, 37783, 38619, 36889, 36165, 35075, 35374, 36621, 39219, 36054, 37799, 39406, 38967, 38597, 44554, 40423, 38770, 40943, 38928, 36944, 37495, 44589, 38480, 39645, 34255, 43244, 38156, 44490, 41135, 39119, 37473, 37107, 35204, 37369, 37626, 35764, 36827, 37550, 36357, 42607, 39283, 37732, 38163, 38366, 40043, 41331, 37861, 41672, 39714, 42032, 43191, 41430, 40196, 39970, 41237, 38468, 38256, 37239, 38446, 40831, 40451, 38526, 39388, 40212, 38810, 44924, 36790, 43654, 41839, 39750, 37677, 39075, 39770, 39558, 37061, 37080, 41898, 41645, 45816, 41347, 39977, 40267, 38835, 37808, 39626, 37768, 38905, 37425, 39279, 38522, 45175, 43073, 41235, 38320, 43459, 41341, 41753, 40357, 41437, 43338, 38647, 40528, 36565, 44229, 37701, 42893, 42590, 43912, 43126, 42362, 39733, 39204, 42344, 40170, 38353, 38091, 38554, 40555, 38584, 43435, 40222, 42553, 38825],
      "WindowCenter": [10160.0, 10147.0, 10087.0, 10065.0, 10108.0, 10091.0, 10085.0, 10135.0, 10090.0, 10114.0, 10063.0, 10061.0, 10088.0, 10051.0, 10088.0, 10074.0, 10134.0, 10160.0, 10140.0, 10145.0, 10096.0, 10078.0, 10106.0, 10043.0, 10054.0, 9984.0, 10058.0, 10033.0, 10022.0, 10034.0, 10050.0, 10040.0, 10070.0, 10075.0, 10119.0, 10088.0, 10165.0, 10065.0, 10185.0, 10148.0, 10124.0, 10118.0, 10073.0, 10108.0, 10084.0, 10141.0, 10054.0, 9994.0, 10063.0, 10048.0, 10021.0, 10037.0, 10092.0, 10090.0, 10107.0, 10106.0, 10107.0, 10086.0, 10133.0, 10138.0, 10103.0, 10090.0, 10148.0, 10134.0, 10134.0, 10096.0, 10092.0, 10099.0, 10102.0, 10097.0, 10100.0, 10108.0, 10077.0, 10062.0, 10023.0, 10014.0, 10015.0, 10049.0, 9996.0, 10006.0, 10031.0, 10005.0, 9997.0, 10043.0, 10003.0, 9999.0, 10023.0, 10014.0, 9995.0, 10004.0, 10072.0, 10035.0, 10047.0, 9984.0, 10080.0, 10027.0, 10090.0, 10036.0, 10022.0, 9976.0, 9970.0, 9957.0, 9988.0, 9954.0, 9926.0, 9966.0, 9968.0, 9959.0, 10015.0, 9979.0, 9971.0, 9969.0, 9974.0, 9991.0, 10008.0, 9994.0, 10054.0, 10048.0, 10072.0, 10074.0, 10052.0, 10041.0, 10014.0, 10021.0, 9993.0, 10001.0, 9999.0, 10014.0, 10039.0, 10028.0, 10009.0, 10022.0, 10043.0, 10018.0, 10070.0, 9983.0, 10069.0, 10079.0, 10094.0, 10045.0, 10055.0, 10020.0, 10002.0, 9967.0, 9962.0, 10004.0, 9994.0, 10024.0, 9991.0, 9953.0, 9968.0, 9961.0, 9947.0, 9981.0, 9978.0, 10007.0, 9975.0, 9996.0, 9985.0, 10059.0, 10048.0, 10040.0, 10016.0, 10056.0, 10017.0, 10022.0, 10008.0, 10016.0, 10043.0, 9998.0, 10021.0, 9976.0, 10049.0, 9988.0, 10031.0, 10032.0, 10044.0, 10037.0, 10013.0, 9979.0, 9971.0, 9987.0, 9957.0, 9933.0, 9943.0, 9959.0, 9982.0, 9962.0, 10001.0, 9973.0, 9997.0, 9945.0],
      "WindowWidth": [21705.0, 21643.0, 21504.0, 21457.0, 21531.0, 21499.0, 21493.0, 21574.0, 21492.0, 21529.0, 21437.0, 21433.0, 21482.0, 21413.0, 21486.0, 21465.0, 21578.0, 21633.0, 21595.0, 21607.0, 21507.0, 21467.0, 21503.0, 21386.0, 21387.0, 21255.0, 21386.0, 21334.0, 21327.0, 21350.0, 21392.0, 21369.0, 21439.0, 21453.0, 21530.0, 21477.0, 21615.0, 21436.0, 21664.0, 21603.0, 21562.0, 21538.0, 21446.0, 21519.0, 21445.0, 21550.0, 21391.0, 21269.0, 21406.0, 21374.0, 21331.0, 21357.0, 21480.0, 21477.0, 21520.0, 21517.0, 21525.0, 21477.0, 21566.0, 21569.0, 21501.0, 21478.0, 21591.0, 21564.0, 21550.0, 21489.0, 21490.0, 21506.0, 21509.0, 21494.0, 21506.0, 21520.0, 21452.0, 21424.0, 21339.0, 21315.0, 21316.0, 21382.0, 21276.0, 21291.0, 21340.0, 21284.0, 21268.0, 21348.0, 21270.0, 21284.0, 21309.0, 21312.0, 21268.0, 21289.0, 21409.0, 21352.0, 21387.0, 21263.0, 21440.0, 21337.0, 21451.0, 21342.0, 21320.0, 21219.0, 21202.0, 21192.0, 21249.0, 21168.0, 21111.0, 21205.0, 21207.0, 21191.0, 21296.0, 21227.0, 21214.0, 21214.0, 21224.0, 21256.0, 21282.0, 21269.0, 21391.0, 21390.0, 21431.0, 21427.0, 21386.0, 21367.0, 21306.0, 21318.0, 21264.0, 21284.0, 21286.0, 21319.0, 21363.0, 21341.0, 21303.0, 21326.0, 21371.0, 21326.0, 21412.0, 21248.0, 21414.0, 21445.0, 21491.0, 21383.0, 21400.0, 21310.0, 21271.0, 21211.0, 21192.0, 21278.0, 21240.0, 21301.0, 21243.0, 21165.0, 21194.0, 21187.0, 21160.0, 21224.0, 21232.0, 21293.0, 21228.0, 21267.0, 21254.0, 21384.0, 21369.0, 21357.0, 21325.0, 21388.0, 21312.0, 21320.0, 21290.0, 21320.0, 21361.0, 21280.0, 21321.0, 21241.0, 21372.0, 21265.0, 21337.0, 21341.0, 21371.0, 21351.0, 21296.0, 21233.0, 21216.0, 21243.0, 21180.0, 21126.0, 21155.0, 21183.0, 21232.0, 21207.0, 21262.0, 21219.0, 21269.0, 21159.0]
    },
    "slices": {}
  },
  "NumberOfVolumes": 192
}