{
  "AcquisitionMatrixPE": 104,
  "AcquisitionNumber": 1,
  "AcquisitionTime": "15:36:26.150000",
  "BandwidthPerPixelPhaseEncode": 16.578,
  "BaseResolution": 104,
  "BodyPartExamined": "BRAIN",
  "ConsistencyInfo": "N4_VE11C_LATEST_20160120",
  "ConversionSoftware": "dcm2niix",
  "ConversionSoftwareVersion": "v1.0.20190902",
  "DerivedVendorReportedEchoSpacing": 0.000580009,
  "DeviceSerialNumber": "166018",
  "DwellTime": 2.1e-06,
  "EchoTime": 0.037,
  "EchoTrainLength": 104,
  "EffectiveEchoSpacing": 0.000580009,
  "FlipAngle": 68,
  "ImageComments": "Unaliased_MB6_PE3_LB",
  "ImageOrientationPatientDICOM": [0.996194, 0.0558761, 0.0669029, -0.0431464, 0.98299, -0.178519],
  "ImageType": [
    "ORIGINAL",
    "PRIMARY",
    "M",
    "MB",
    "ND",
    "MOSAIC"
],
  "ImagingFrequency": 123.191,
  "InPlanePhaseEncodingDirectionDICOM": "COL",
  "InstitutionAddress": "Washington_Place_6_NYC_NYC_US_10003",
  "InstitutionName": "NYU_-_CBI",
  "InstitutionalDepartmentName": "Department",
  "MRAcquisitionType": "2D",
  "MagneticFieldStrength": 3,
  "Manufacturer": "Siemens",
  "ManufacturersModelName": "Prisma",
  "Modality": "MR",
  "MultibandAccelerationFactor": 6,
  "PartialFourier": 1,
  "PatientPosition": "HFS",
  "PercentPhaseFOV": 100,
  "PhaseEncodingDirection": "j",
  "PhaseEncodingSteps": 104,
  "PhaseResolution": 1,
  "PixelBandwidth": 2290,
  "ProcedureStepDescription": "Investigators_Winawer",
  "ProtocolName": "cmrr_mbepi_s6_2mm_66sl_PA_task-prf",
  "PulseSequenceDetails": "%CustomerSeq%_cmrr_mbep2d_bold",
  "ReceiveCoilActiveElements": "HC1-7",
  "ReceiveCoilName": "HeadNeck_64",
  "ReconMatrixPE": 104,
  "RepetitionTime": 1,
  "SAR": 0.0774596,
  "ScanOptions": "FS",
  "ScanningSequence": "EP",
  "SequenceName": "epfid2d1_104",
  "SequenceVariant": "SK_SS",
  "SeriesDescription": "cmrr_mbepi_s6_2mm_66sl_PA_task-prf",
  "SeriesNumber": 8,
  "ShimSetting": [270, -12637, -8462, 307, -98, -163, -127, 8],
  "SliceThickness": 2,
  "SliceTiming": [0, 0.535, 0.09, 0.625, 0.18, 0.7125, 0.2675, 0.8025, 0.3575, 0.8925, 0.445, 0, 0.535, 0.09, 0.625, 0.18, 0.7125, 0.2675, 0.8025, 0.3575, 0.8925, 0.445, 0, 0.535, 0.09, 0.625, 0.18, 0.7125, 0.2675, 0.8025, 0.3575, 0.8925, 0.445, 0, 0.535, 0.09, 0.625, 0.18, 0.7125, 0.2675, 0.8025, 0.3575, 0.8925, 0.445, 0, 0.535, 0.09, 0.625, 0.18, 0.7125, 0.2675, 0.8025, 0.3575, 0.8925, 0.445, 0, 0.535, 0.09, 0.625, 0.18, 0.7125, 0.2675, 0.8025, 0.3575, 0.8925, 0.445],
  "SoftwareVersions": "syngo_MR_E11",
  "SpacingBetweenSlices": 2,
  "StationName": "AWP166018",
  "TaskName": "prf",
  "TotalReadoutTime": 0.0597409,
  "TxRefAmp": 236.358,
  "WipMemBlock": "4e5a90b2-191d-43cf-a7f6-2bac17c3373a||Sequence: R016 ve11c/master r/8780670; Nov 27 2017 15:05:12 by eja",
  "dcmmeta_affine": [
    [-1.9923874139785767, -0.08629276603460312, 0.15147976577281952, 112.37262725830078],
    [-0.11175215989351273, 1.965979814529419, -0.3499065637588501, -61.655330657958984],
    [0.13380587100982666, 0.35703879594802856, 1.9633184671401978, -64.42306518554688],
    [0.0, 0.0, 0.0, 1.0]
],
  "dcmmeta_reorient_transform": [
    [0.0, -1.0, 0.0, 103.0],
    [1.0, 0.0, 0.0, 0.0],
    [0.0, 0.0, 1.0, 0.0],
    [0.0, 0.0, 0.0, 1.0]
],
  "dcmmeta_shape": [104, 104, 66, 192],
  "dcmmeta_slice_dim": 2,
  "dcmmeta_version": 0.6,
  "global": {
    "const": {
      "AccessionNumber": "K3OVXJG2",
      "AcquisitionMatrix": [104, 0, 0, 104],
      "AngioFlag": "N",
      "BitsAllocated": 16,
      "BitsStored": 16,
      "BodyPartExamined": "BRAIN",
      "Columns": 936,
      "EchoNumbers": 1,
      "EchoTime": 37.0,
      "EchoTrainLength": 104,
      "FlipAngle": 68.0,
      "HighBit": 15,
      "ImageOrientationPatient": [0.99619368619562, 0.05587608117034, 0.06690293817938, -0.0431463823089, 0.98298993700032, -0.1785193923633],
      "ImagePositionPatient": [-896.419826811, -1005.1771235864, 65.216817491896],
      "ImageType": [
        "ORIGINAL",
        "PRIMARY",
        "M",
        "MB",
        "ND",
        "MOSAIC"
],
      "ImagedNucleus": "1H",
      "ImagingFrequency": 123.190849,
      "InPlanePhaseEncodingDirection": "COL",
      "MRAcquisitionType": "2D",
      "MagneticFieldStrength": 3.0,
      "Manufacturer": "SIEMENS",
      "ManufacturerModelName": "Prisma",
      "Modality": "MR",
      "NumberOfAverages": 1.0,
      "NumberOfPhaseEncodingSteps": 104,
      "PercentPhaseFieldOfView": 100.0,
      "PercentSampling": 100.0,
      "PerformedProcedureStepStartTime": "152235.370000",
      "PhotometricInterpretation": "MONOCHROME2",
      "PixelBandwidth": 2290.0,
      "PixelRepresentation": 0,
      "PixelSpacing": [2.0, 2.0],
      "ProtocolName": "cmrr_mbepi_s6_2mm_66sl_PA_task-prf",
      "RepetitionTime": 1000.0,
      "Rows": 936,
      "SAR": 0.07745955755663,
      "SamplesPerPixel": 1,
      "ScanOptions": "FS",
      "ScanningSequence": "EP",
      "SequenceName": "epfid2d1_104",
      "SequenceVariant": [
        "SK",
        "SS"
],
      "SeriesDescription": "cmrr_mbepi_s6_2mm_66sl_PA_task-prf",
      "SeriesNumber": 8,
      "SeriesTime": "153744.474000",
      "SliceLocation": -43.943607078398,
      "SliceThickness": 2.0,
      "SmallestImagePixelValue": 0,
      "SoftwareVersions": "syngo MR E11",
      "SpacingBetweenSlices": 2.0000000779509,
      "SpecificCharacterSet": "ISO_IR 100",
      "StudyID": "1",
      "StudyTime": "152235.317000",
      "TransmitCoilName": "Body",
      "VariableFlipAngleFlag": "N",
      "WindowCenterWidthExplanation": "Algo1",
      "dBdt": 0.0},
    "slices": {}
  },
  "time": {
    "samples": {
      "AcquisitionNumber": [1, 2, 3, 4, 5, 6, 7, 8, 9, 10, 11, 12, 13, 14, 15, 16, 17, 18, 19, 20, 21, 22, 23, 24, 25, 26, 27, 28, 29, 30, 31, 32, 33, 34, 35, 36, 37, 38, 39, 40, 41, 42, 43, 44, 45, 46, 47, 48, 49, 50, 51, 52, 53, 54, 55, 56, 57, 58, 59, 60, 61, 62, 63, 64, 65, 66, 67, 68, 69, 70, 71, 72, 73, 74, 75, 76, 77, 78, 79, 80, 81, 82, 83, 84, 85, 86, 87, 88, 89, 90, 91, 92, 93, 94, 95, 96, 97, 98, 99, 100, 101, 102, 103, 104, 105, 106, 107, 108, 109, 110, 111, 112, 113, 114, 115, 116, 117, 118, 119, 120, 121, 122, 123, 124, 125, 126, 127, 128, 129, 130, 131, 132, 133, 134, 135, 136, 137, 138, 139, 140, 141, 142, 143, 144, 145, 146, 147, 148, 149, 150, 151, 152, 153, 154, 155, 156, 157, 158, 159, 160, 161, 162, 163, 164, 165, 166, 167, 168, 169, 170, 171, 172, 173, 174, 175, 176, 177, 178, 179, 180, 181, 182, 183, 184, 185, 186, 187, 188, 189, 190, 191, 192],
      "AcquisitionTime": ["153626.150000", "153627.150000", "153628.150000", "153629.150000", "153630.150000", "153631.150000", "153632.150000", "153633.150000", "153634.150000", "153635.150000", "153636.150000", "153637.150000", "153638.150000", "153639.150000", "153640.150000", "153641.150000", "153642.150000", "153643.150000", "153644.150000", "153645.150000", "153646.150000", "153647.150000", "153648.150000", "153649.150000", "153650.150000", "153651.150000", "153652.150000", "153653.150000", "153654.150000", "153655.150000", "153656.150000", "153657.150000", "153658.150000", "153659.150000", "153700.150000", "153701.150000", "153702.150000", "153703.150000", "153704.150000", "153705.150000", "153706.150000", "153707.150000", "153708.150000", "153709.150000", "153710.150000", "153711.150000", "153712.150000", "153713.150000", "153714.150000", "153715.150000", "153716.150000", "153717.150000", "153718.150000", "153719.150000", "153720.150000", "153721.150000", "153722.150000", "153723.150000", "153724.150000", "153725.150000", "153726.150000", "153727.150000", "153728.150000", "153729.150000", "153730.150000", "153731.150000", "153732.150000", "153733.150000", "153734.150000", "153735.150000", "153736.150000", "153737.150000", "153738.150000", "153739.150000", "153740.150000", "153741.150000", "153742.150000", "153743.150000", "153744.150000", "153745.150000", "153746.150000", "153747.150000", "153748.150000", "153749.150000", "153750.150000", "153751.150000", "153752.150000", "153753.150000", "153754.150000", "153755.150000", "153756.150000", "153757.150000", "153758.150000", "153759.150000", "153800.150000", "153801.150000", "153802.150000", "153803.150000", "153804.150000", "153805.150000", "153806.150000", "153807.150000", "153808.150000", "153809.150000", "153810.150000", "153811.150000", "153812.150000", "153813.150000", "153814.150000", "153815.150000", "153816.150000", "153817.150000", "153818.150000", "153819.150000", "153820.150000", "153821.150000", "153822.150000", "153823.150000", "153824.150000", "153825.150000", "153826.150000", "153827.150000", "153828.150000", "153829.150000", "153830.150000", "153831.150000", "153832.150000", "153833.150000", "153834.150000", "153835.150000", "153836.150000", "153837.150000", "153838.150000", "153839.150000", "153840.150000", "153841.150000", "153842.150000", "153843.150000", "153844.150000", "153845.150000", "153846.150000", "153847.150000", "153848.150000", "153849.150000", "153850.150000", "153851.150000", "153852.150000", "153853.150000", "153854.150000", "153855.150000", "153856.150000", "153857.150000", "153858.150000", "153859.150000", "153900.150000", "153901.150000", "153902.150000", "153903.150000", "153904.150000", "153905.150000", "153906.150000", "153907.150000", "153908.150000", "153909.150000", "153910.150000", "153911.150000", "153912.150000", "153913.150000", "153914.150000", "153915.150000", "153916.150000", "153917.150000", "153918.150000", "153919.150000", "153920.150000", "153921.150000", "153922.150000", "153923.150000", "153924.150000", "153925.150000", "153926.150000", "153927.150000", "153928.150000", "153929.150000", "153930.150000", "153931.150000", "153932.150000", "153933.150000", "153934.150000", "153935.150000", "153936.150000", "153937.150000"],
      "ContentTime": ["153744.477000", "153744.481000", "153744.483000", "153744.487000", "153744.490000", "153744.493000", "153744.496000", "153744.499000", "153744.502000", "153744.505000", "153744.507000", "153744.511000", "153744.513000", "153744.520000", "153744.523000", "153744.526000", "153744.529000", "153744.532000", "153744.534000", "153744.537000", "153744.540000", "153744.543000", "153744.546000", "153744.549000", "153744.552000", "153744.555000", "153744.558000", "153744.561000", "153744.564000", "153744.567000", "153744.570000", "153744.573000", "153804.445000", "153804.448000", "153804.451000", "153804.454000", "153804.457000", "153804.460000", "153804.463000", "153804.466000", "153804.473000", "153804.476000", "153804.479000", "153804.482000", "153804.485000", "153804.488000", "153804.491000", "153804.494000", "153804.497000", "153804.499000", "153804.502000", "153804.505000", "153804.508000", "153804.511000", "153804.514000", "153804.517000", "153804.520000", "153804.523000", "153804.526000", "153804.529000", "153824.446000", "153824.469000", "153824.473000", "153824.475000", "153824.478000", "153824.481000", "153824.484000", "153824.487000", "153824.490000", "153824.493000", "153824.496000", "153824.499000", "153824.502000", "153824.505000", "153824.508000", "153824.511000", "153824.513000", "153824.516000", "153824.519000", "153824.522000", "153824.525000", "153824.528000", "153824.537000", "153824.540000", "153824.543000", "153824.545000", "153824.549000", "153824.552000", "153844.446000", "153844.449000", "153844.452000", "153844.455000", "153844.458000", "153844.461000", "153844.464000", "153844.467000", "153844.470000", "153844.473000", "153844.476000", "153844.478000", "153844.482000", "153844.484000", "153844.487000", "153844.490000", "153844.493000", "153844.496000", "153844.499000", "153844.502000", "153844.505000", "153844.508000", "153844.511000", "153844.514000", "153844.517000", "153844.520000", "153844.523000", "153844.526000", "153844.529000", "153904.446000", "153904.449000", "153904.452000", "153904.455000", "153904.458000", "153904.461000", "153904.464000", "153904.467000", "153904.470000", "153904.472000", "153904.475000", "153904.478000", "153904.481000", "153904.484000", "153904.487000", "153904.490000", "153904.493000", "153904.496000", "153904.499000", "153904.502000", "153904.505000", "153904.507000", "153904.510000", "153904.513000", "153904.516000", "153904.519000", "153904.522000", "153904.525000", "153924.446000", "153924.454000", "153924.457000", "153924.460000", "153924.463000", "153924.466000", "153924.469000", "153924.472000", "153924.484000", "153924.487000", "153924.490000", "153924.493000", "153924.495000", "153924.498000", "153924.501000", "153924.504000", "153924.507000", "153924.510000", "153924.513000", "153924.516000", "153924.519000", "153924.522000", "153924.525000", "153924.528000", "153924.531000", "153924.534000", "153924.537000", "153924.539000", "153924.542000", "153939.127000", "153939.130000", "153939.133000", "153939.136000", "153939.139000", "153939.142000", "153939.145000", "153939.148000", "153939.151000", "153939.154000", "153939.157000", "153939.160000", "153939.163000", "153939.166000", "153939.169000", "153939.171000", "153939.174000", "153939.177000"],
      "InstanceCreationTime": ["153744.477000", "153744.481000", "153744.483000", "153744.487000", "153744.490000", "153744.493000", "153744.496000", "153744.499000", "153744.502000", "153744.505000", "153744.507000", "153744.511000", "153744.513000", "153744.520000", "153744.523000", "153744.526000", "153744.529000", "153744.532000", "153744.534000", "153744.537000", "153744.540000", "153744.543000", "153744.546000", "153744.549000", "153744.552000", "153744.555000", "153744.558000", "153744.561000", "153744.564000", "153744.567000", "153744.570000", "153744.573000", "153804.445000", "153804.448000", "153804.451000", "153804.454000", "153804.457000", "153804.460000", "153804.463000", "153804.466000", "153804.473000", "153804.476000", "153804.479000", "153804.482000", "153804.485000", "153804.488000", "153804.491000", "153804.494000", "153804.497000", "153804.499000", "153804.502000", "153804.505000", "153804.508000", "153804.511000", "153804.514000", "153804.517000", "153804.520000", "153804.523000", "153804.526000", "153804.529000", "153824.446000", "153824.469000", "153824.473000", "153824.475000", "153824.478000", "153824.481000", "153824.484000", "153824.487000", "153824.490000", "153824.493000", "153824.496000", "153824.499000", "153824.502000", "153824.505000", "153824.508000", "153824.511000", "153824.513000", "153824.516000", "153824.519000", "153824.522000", "153824.525000", "153824.528000", "153824.537000", "153824.540000", "153824.543000", "153824.545000", "153824.549000", "153824.552000", "153844.446000", "153844.449000", "153844.452000", "153844.455000", "153844.458000", "153844.461000", "153844.464000", "153844.467000", "153844.470000", "153844.473000", "153844.476000", "153844.478000", "153844.482000", "153844.484000", "153844.487000", "153844.490000", "153844.493000", "153844.496000", "153844.499000", "153844.502000", "153844.505000", "153844.508000", "153844.511000", "153844.514000", "153844.517000", "153844.520000", "153844.523000", "153844.526000", "153844.529000", "153904.446000", "153904.449000", "153904.452000", "153904.455000", "153904.458000", "153904.461000", "153904.464000", "153904.467000", "153904.470000", "153904.472000", "153904.475000", "153904.478000", "153904.481000", "153904.484000", "153904.487000", "153904.490000", "153904.493000", "153904.496000", "153904.499000", "153904.502000", "153904.505000", "153904.507000", "153904.510000", "153904.513000", "153904.516000", "153904.519000", "153904.522000", "153904.525000", "153924.446000", "153924.454000", "153924.457000", "153924.460000", "153924.463000", "153924.466000", "153924.469000", "153924.472000", "153924.484000", "153924.487000", "153924.490000", "153924.493000", "153924.495000", "153924.498000", "153924.501000", "153924.504000", "153924.507000", "153924.510000", "153924.513000", "153924.516000", "153924.519000", "153924.522000", "153924.525000", "153924.528000", "153924.531000", "153924.534000", "153924.537000", "153924.539000", "153924.542000", "153939.127000", "153939.130000", "153939.133000", "153939.136000", "153939.139000", "153939.142000", "153939.145000", "153939.148000", "153939.151000", "153939.154000", "153939.157000", "153939.160000", "153939.163000", "153939.166000", "153939.169000", "153939.171000", "153939.174000", "153939.177000"],
      "InstanceNumber": [1, 2, 3, 4, 5, 6, 7, 8, 9, 10, 11, 12, 13, 14, 15, 16, 17, 18, 19, 20, 21, 22, 23, 24, 25, 26, 27, 28, 29, 30, 31, 32, 33, 34, 35, 36, 37, 38, 39, 40, 41, 42, 43, 44, 45, 46, 47, 48, 49, 50, 51, 52, 53, 54, 55, 56, 57, 58, 59, 60, 61, 62, 63, 64, 65, 66, 67, 68, 69, 70, 71, 72, 73, 74, 75, 76, 77, 78, 79, 80, 81, 82, 83, 84, 85, 86, 87, 88, 89, 90, 91, 92, 93, 94, 95, 96, 97, 98, 99, 100, 101, 102, 103, 104, 105, 106, 107, 108, 109, 110, 111, 112, 113, 114, 115, 116, 117, 118, 119, 120, 121, 122, 123, 124, 125, 126, 127, 128, 129, 130, 131, 132, 133, 134, 135, 136, 137, 138, 139, 140, 141, 142, 143, 144, 145, 146, 147, 148, 149, 150, 151, 152, 153, 154, 155, 156, 157, 158, 159, 160, 161, 162, 163, 164, 165, 166, 167, 168, 169, 170, 171, 172, 173, 174, 175, 176, 177, 178, 179, 180, 181, 182, 183, 184, 185, 186, 187, 188, 189, 190, 191, 192],
      "LargestImagePixelValue": [41276, 39808, 39233, 38669, 38412, 38368, 38200, 38330, 38060, 38466, 38293, 38394, 38110, 37882, 38278, 38584, 38141, 38391, 38275, 38342, 42292, 38227, 38247, 38294, 38064, 38197, 37989, 38215, 38051, 37979, 37990, 37791, 38178, 38211, 37909, 38533, 38128, 38310, 38159, 39514, 38801, 37924, 37666, 41559, 38427, 38639, 38639, 38370, 38338, 38508, 38403, 37914, 37818, 38202, 38239, 38108, 37610, 38060, 38177, 38252, 38323, 38349, 38521, 38266, 41189, 38496, 38644, 38458, 43113, 38289, 38234, 38328, 37817, 38223, 38085, 38091, 38172, 38018, 38607, 38568, 38440, 38904, 38424, 38510, 38260, 38433, 38442, 38644, 38316, 38327, 38505, 39020, 39688, 38380, 38025, 38431, 39647, 39649, 38321, 45361, 37728, 38127, 38422, 38198, 38215, 38103, 38255, 38564, 37777, 38280, 38499, 38718, 38605, 41643, 37414, 43431, 38390, 38440, 38232, 37792, 37478, 37581, 37758, 37223, 37372, 41871, 37683, 43734, 37770, 37798, 37726, 37790, 38021, 38352, 37698, 39467, 37707, 39765, 38021, 38066, 38113, 39449, 40952, 37954, 37688, 37727, 37490, 37750, 40116, 37972, 38623, 38247, 38582, 37678, 40607, 37909, 37583, 43844, 38058, 38421, 38170, 38921, 49510, 38264, 39676, 38418, 38503, 37734, 38959, 38017, 37882, 38123, 39575, 39581, 38073, 41553, 41283, 38280, 38066, 39615, 39122, 41140, 38246, 40623, 41730, 39513, 39058, 38160, 42648, 37623, 38372, 40711],
      "WindowCenter": [10268.0, 10216.0, 10224.0, 10219.0, 10227.0, 10237.0, 10239.0, 10228.0, 10213.0, 10216.0, 10207.0, 10207.0, 10202.0, 10205.0, 10216.0, 10213.0, 10209.0, 10207.0, 10206.0, 10207.0, 10253.0, 10211.0, 10219.0, 10211.0, 10200.0, 10193.0, 10185.0, 10192.0, 10191.0, 10198.0, 10206.0, 10218.0, 10202.0, 10199.0, 10187.0, 10190.0, 10183.0, 10168.0, 10158.0, 10173.0, 10169.0, 10172.0, 10163.0, 10204.0, 10162.0, 10166.0, 10170.0, 10172.0, 10173.0, 10184.0, 10190.0, 10180.0, 10186.0, 10196.0, 10212.0, 10214.0, 10208.0, 10211.0, 10198.0, 10202.0, 10191.0, 10190.0, 10192.0, 10198.0, 10233.0, 10206.0, 10209.0, 10207.0, 10256.0, 10208.0, 10220.0, 10218.0, 10214.0, 10220.0, 10231.0, 10247.0, 10232.0, 10215.0, 10201.0, 10188.0, 10166.0, 10170.0, 10164.0, 10179.0, 10199.0, 10216.0, 10218.0, 10217.0, 10203.0, 10194.0, 10188.0, 10202.0, 10201.0, 10192.0, 10186.0, 10192.0, 10200.0, 10209.0, 10200.0, 10261.0, 10181.0, 10178.0, 10181.0, 10176.0, 10169.0, 10167.0, 10159.0, 10156.0, 10134.0, 10130.0, 10136.0, 10141.0, 10150.0, 10202.0, 10171.0, 10254.0, 10193.0, 10186.0, 10176.0, 10171.0, 10163.0, 10156.0, 10154.0, 10142.0, 10136.0, 10172.0, 10125.0, 10180.0, 10122.0, 10122.0, 10137.0, 10142.0, 10148.0, 10152.0, 10134.0, 10158.0, 10142.0, 10165.0, 10141.0, 10131.0, 10132.0, 10157.0, 10173.0, 10141.0, 10142.0, 10151.0, 10153.0, 10151.0, 10171.0, 10149.0, 10158.0, 10157.0, 10161.0, 10143.0, 10168.0, 10128.0, 10117.0, 10183.0, 10121.0, 10126.0, 10131.0, 10158.0, 10274.0, 10181.0, 10202.0, 10186.0, 10179.0, 10174.0, 10184.0, 10180.0, 10173.0, 10175.0, 10193.0, 10200.0, 10195.0, 10235.0, 10229.0, 10186.0, 10172.0, 10189.0, 10173.0, 10197.0, 10167.0, 10197.0, 10197.0, 10168.0, 10164.0, 10139.0, 10181.0, 10133.0, 10134.0, 10156.0],
      "WindowWidth": [21961.0, 21819.0, 21817.0, 21804.0, 21818.0, 21835.0, 21843.0, 21814.0, 21780.0, 21788.0, 21760.0, 21760.0, 21750.0, 21761.0, 21789.0, 21774.0, 21770.0, 21763.0, 21762.0, 21762.0, 21856.0, 21774.0, 21797.0, 21773.0, 21749.0, 21734.0, 21717.0, 21733.0, 21732.0, 21754.0, 21761.0, 21797.0, 21755.0, 21745.0, 21723.0, 21725.0, 21714.0, 21674.0, 21655.0, 21688.0, 21674.0, 21684.0, 21668.0, 21751.0, 21663.0, 21671.0, 21680.0, 21691.0, 21691.0, 21716.0, 21728.0, 21712.0, 21724.0, 21751.0, 21783.0, 21788.0, 21775.0, 21776.0, 21751.0, 21761.0, 21729.0, 21729.0, 21731.0, 21745.0, 21820.0, 21764.0, 21771.0, 21766.0, 21860.0, 21769.0, 21803.0, 21791.0, 21785.0, 21802.0, 21829.0, 21859.0, 21827.0, 21783.0, 21749.0, 21717.0, 21669.0, 21674.0, 21667.0, 21701.0, 21746.0, 21791.0, 21791.0, 21793.0, 21756.0, 21741.0, 21725.0, 21750.0, 21753.0, 21735.0, 21719.0, 21734.0, 21749.0, 21771.0, 21753.0, 21862.0, 21714.0, 21702.0, 21707.0, 21697.0, 21682.0, 21674.0, 21656.0, 21645.0, 21603.0, 21590.0, 21603.0, 21616.0, 21637.0, 21750.0, 21692.0, 21856.0, 21741.0, 21727.0, 21700.0, 21688.0, 21668.0, 21654.0, 21648.0, 21625.0, 21611.0, 21679.0, 21584.0, 21680.0, 21576.0, 21575.0, 21608.0, 21622.0, 21634.0, 21640.0, 21606.0, 21651.0, 21622.0, 21672.0, 21618.0, 21594.0, 21596.0, 21656.0, 21681.0, 21623.0, 21623.0, 21648.0, 21650.0, 21646.0, 21678.0, 21634.0, 21651.0, 21651.0, 21661.0, 21623.0, 21670.0, 21593.0, 21565.0, 21693.0, 21573.0, 21581.0, 21595.0, 21656.0, 21888.0, 21711.0, 21751.0, 21722.0, 21707.0, 21696.0, 21720.0, 21709.0, 21699.0, 21699.0, 21733.0, 21751.0, 21746.0, 21825.0, 21813.0, 21723.0, 21694.0, 21728.0, 21694.0, 21744.0, 21683.0, 21749.0, 21733.0, 21680.0, 21674.0, 21613.0, 21688.0, 21603.0, 21603.0, 21637.0]
    },
    "slices": {}
  },
  "NumberOfVolumes": 192
}