{
  "AcquisitionMatrixPE": 104,
  "AcquisitionNumber": 1,
  "AcquisitionTime": "15:46:55.475000",
  "BandwidthPerPixelPhaseEncode": 16.578,
  "BaseResolution": 104,
  "BodyPartExamined": "BRAIN",
  "ConsistencyInfo": "N4_VE11C_LATEST_20160120",
  "ConversionSoftware": "dcm2niix",
  "ConversionSoftwareVersion": "v1.0.20190902",
  "DerivedVendorReportedEchoSpacing": 0.000580009,
  "DeviceSerialNumber": "166018",
  "DwellTime": 2.1e-06,
  "EchoTime": 0.037,
  "EchoTrainLength": 104,
  "EffectiveEchoSpacing": 0.000580009,
  "FlipAngle": 68,
  "ImageComments": "Unaliased_MB6_PE3_LB",
  "ImageOrientationPatientDICOM": [0.996194, 0.0558761, 0.0669029, -0.0431464, 0.98299, -0.178519],
  "ImageType": [
    "ORIGINAL",
    "PRIMARY",
    "M",
    "MB",
    "ND",
    "MOSAIC"
],
  "ImagingFrequency": 123.191,
  "InPlanePhaseEncodingDirectionDICOM": "COL",
  "InstitutionAddress": "Washington_Place_6_NYC_NYC_US_10003",
  "InstitutionName": "NYU_-_CBI",
  "InstitutionalDepartmentName": "Department",
  "MRAcquisitionType": "2D",
  "MagneticFieldStrength": 3,
  "Manufacturer": "Siemens",
  "ManufacturersModelName": "Prisma",
  "Modality": "MR",
  "MultibandAccelerationFactor": 6,
  "PartialFourier": 1,
  "PatientPosition": "HFS",
  "PercentPhaseFOV": 100,
  "PhaseEncodingDirection": "j",
  "PhaseEncodingSteps": 104,
  "PhaseResolution": 1,
  "PixelBandwidth": 2290,
  "ProcedureStepDescription": "Investigators_Winawer",
  "ProtocolName": "cmrr_mbepi_s6_2mm_66sl_PA_task-prf",
  "PulseSequenceDetails": "%CustomerSeq%_cmrr_mbep2d_bold",
  "ReceiveCoilActiveElements": "HC1-7",
  "ReceiveCoilName": "HeadNeck_64",
  "ReconMatrixPE": 104,
  "RepetitionTime": 1,
  "SAR": 0.0774596,
  "ScanOptions": "FS",
  "ScanningSequence": "EP",
  "SequenceName": "epfid2d1_104",
  "SequenceVariant": "SK_SS",
  "SeriesDescription": "cmrr_mbepi_s6_2mm_66sl_PA_task-prf",
  "SeriesNumber": 14,
  "ShimSetting": [270, -12637, -8462, 307, -98, -163, -127, 8],
  "SliceThickness": 2,
  "SliceTiming": [0, 0.535, 0.09, 0.625, 0.1775, 0.7125, 0.2675, 0.8025, 0.3575, 0.8925, 0.445, 0, 0.535, 0.09, 0.625, 0.1775, 0.7125, 0.2675, 0.8025, 0.3575, 0.8925, 0.445, 0, 0.535, 0.09, 0.625, 0.1775, 0.7125, 0.2675, 0.8025, 0.3575, 0.8925, 0.445, 0, 0.535, 0.09, 0.625, 0.1775, 0.7125, 0.2675, 0.8025, 0.3575, 0.8925, 0.445, 0, 0.535, 0.09, 0.625, 0.1775, 0.7125, 0.2675, 0.8025, 0.3575, 0.8925, 0.445, 0, 0.535, 0.09, 0.625, 0.1775, 0.7125, 0.2675, 0.8025, 0.3575, 0.8925, 0.445],
  "SoftwareVersions": "syngo_MR_E11",
  "SpacingBetweenSlices": 2,
  "StationName": "AWP166018",
  "TaskName": "prf",
  "TotalReadoutTime": 0.0597409,
  "TxRefAmp": 236.358,
  "WipMemBlock": "4e5a90b2-191d-43cf-a7f6-2bac17c3373a||Sequence: R016 ve11c/master r/8780670; Nov 27 2017 15:05:12 by eja",
  "dcmmeta_affine": [
    [-1.9923874139785767, -0.08629276603460312, 0.15147976577281952, 112.37262725830078],
    [-0.11175215989351273, 1.965979814529419, -0.3499065637588501, -61.655330657958984],
    [0.13380587100982666, 0.35703879594802856, 1.9633184671401978, -64.42306518554688],
    [0.0, 0.0, 0.0, 1.0]
],
  "dcmmeta_reorient_transform": [
    [0.0, -1.0, 0.0, 103.0],
    [1.0, 0.0, 0.0, 0.0],
    [0.0, 0.0, 1.0, 0.0],
    [0.0, 0.0, 0.0, 1.0]
],
  "dcmmeta_shape": [104, 104, 66, 192],
  "dcmmeta_slice_dim": 2,
  "dcmmeta_version": 0.6,
  "global": {
    "const": {
      "AccessionNumber": "K3OVXJG2",
      "AcquisitionMatrix": [104, 0, 0, 104],
      "AngioFlag": "N",
      "BitsAllocated": 16,
      "BitsStored": 16,
      "BodyPartExamined": "BRAIN",
      "Columns": 936,
      "EchoNumbers": 1,
      "EchoTime": 37.0,
      "EchoTrainLength": 104,
      "FlipAngle": 68.0,
      "HighBit": 15,
      "ImageOrientationPatient": [0.99619368619562, 0.05587608117034, 0.06690293817938, -0.0431463823089, 0.98298993700032, -0.1785193923633],
      "ImagePositionPatient": [-896.419826811, -1005.1771235864, 65.216817491896],
      "ImageType": [
        "ORIGINAL",
        "PRIMARY",
        "M",
        "MB",
        "ND",
        "MOSAIC"
],
      "ImagedNucleus": "1H",
      "ImagingFrequency": 123.190849,
      "InPlanePhaseEncodingDirection": "COL",
      "MRAcquisitionType": "2D",
      "MagneticFieldStrength": 3.0,
      "Manufacturer": "SIEMENS",
      "ManufacturerModelName": "Prisma",
      "Modality": "MR",
      "NumberOfAverages": 1.0,
      "NumberOfPhaseEncodingSteps": 104,
      "PercentPhaseFieldOfView": 100.0,
      "PercentSampling": 100.0,
      "PerformedProcedureStepStartTime": "152235.370000",
      "PhotometricInterpretation": "MONOCHROME2",
      "PixelBandwidth": 2290.0,
      "PixelRepresentation": 0,
      "PixelSpacing": [2.0, 2.0],
      "ProtocolName": "cmrr_mbepi_s6_2mm_66sl_PA_task-prf",
      "RepetitionTime": 1000.0,
      "Rows": 936,
      "SAR": 0.07745955755663,
      "SamplesPerPixel": 1,
      "ScanOptions": "FS",
      "ScanningSequence": "EP",
      "SequenceName": "epfid2d1_104",
      "SequenceVariant": [
        "SK",
        "SS"
],
      "SeriesDescription": "cmrr_mbepi_s6_2mm_66sl_PA_task-prf",
      "SeriesNumber": 14,
      "SeriesTime": "154804.475000",
      "SliceLocation": -43.943607078398,
      "SliceThickness": 2.0,
      "SmallestImagePixelValue": 0,
      "SoftwareVersions": "syngo MR E11",
      "SpacingBetweenSlices": 2.0000000779509,
      "SpecificCharacterSet": "ISO_IR 100",
      "StudyID": "1",
      "StudyTime": "152235.317000",
      "TransmitCoilName": "Body",
      "VariableFlipAngleFlag": "N",
      "WindowCenterWidthExplanation": "Algo1",
      "dBdt": 0.0},
    "slices": {}
  },
  "time": {
    "samples": {
      "AcquisitionNumber": [1, 2, 3, 4, 5, 6, 7, 8, 9, 10, 11, 12, 13, 14, 15, 16, 17, 18, 19, 20, 21, 22, 23, 24, 25, 26, 27, 28, 29, 30, 31, 32, 33, 34, 35, 36, 37, 38, 39, 40, 41, 42, 43, 44, 45, 46, 47, 48, 49, 50, 51, 52, 53, 54, 55, 56, 57, 58, 59, 60, 61, 62, 63, 64, 65, 66, 67, 68, 69, 70, 71, 72, 73, 74, 75, 76, 77, 78, 79, 80, 81, 82, 83, 84, 85, 86, 87, 88, 89, 90, 91, 92, 93, 94, 95, 96, 97, 98, 99, 100, 101, 102, 103, 104, 105, 106, 107, 108, 109, 110, 111, 112, 113, 114, 115, 116, 117, 118, 119, 120, 121, 122, 123, 124, 125, 126, 127, 128, 129, 130, 131, 132, 133, 134, 135, 136, 137, 138, 139, 140, 141, 142, 143, 144, 145, 146, 147, 148, 149, 150, 151, 152, 153, 154, 155, 156, 157, 158, 159, 160, 161, 162, 163, 164, 165, 166, 167, 168, 169, 170, 171, 172, 173, 174, 175, 176, 177, 178, 179, 180, 181, 182, 183, 184, 185, 186, 187, 188, 189, 190, 191, 192],
      "AcquisitionTime": ["154655.475000", "154656.475000", "154657.475000", "154658.475000", "154659.475000", "154700.475000", "154701.475000", "154702.475000", "154703.475000", "154704.475000", "154705.475000", "154706.475000", "154707.475000", "154708.475000", "154709.475000", "154710.475000", "154711.475000", "154712.475000", "154713.475000", "154714.475000", "154715.475000", "154716.475000", "154717.475000", "154718.475000", "154719.475000", "154720.475000", "154721.475000", "154722.475000", "154723.475000", "154724.475000", "154725.475000", "154726.475000", "154727.475000", "154728.475000", "154729.475000", "154730.475000", "154731.475000", "154732.475000", "154733.475000", "154734.475000", "154735.475000", "154736.475000", "154737.475000", "154738.475000", "154739.475000", "154740.475000", "154741.475000", "154742.475000", "154743.475000", "154744.475000", "154745.475000", "154746.475000", "154747.475000", "154748.475000", "154749.475000", "154750.475000", "154751.475000", "154752.475000", "154753.475000", "154754.475000", "154755.475000", "154756.475000", "154757.475000", "154758.475000", "154759.475000", "154800.475000", "154801.475000", "154802.475000", "154803.475000", "154804.475000", "154805.475000", "154806.475000", "154807.475000", "154808.475000", "154809.475000", "154810.475000", "154811.475000", "154812.475000", "154813.475000", "154814.475000", "154815.475000", "154816.475000", "154817.475000", "154818.475000", "154819.475000", "154820.475000", "154821.475000", "154822.475000", "154823.475000", "154824.475000", "154825.475000", "154826.475000", "154827.475000", "154828.475000", "154829.475000", "154830.475000", "154831.475000", "154832.475000", "154833.475000", "154834.475000", "154835.475000", "154836.475000", "154837.475000", "154838.475000", "154839.475000", "154840.475000", "154841.475000", "154842.475000", "154843.475000", "154844.475000", "154845.475000", "154846.475000", "154847.475000", "154848.475000", "154849.475000", "154850.475000", "154851.475000", "154852.475000", "154853.475000", "154854.475000", "154855.475000", "154856.475000", "154857.475000", "154858.475000", "154859.475000", "154900.475000", "154901.475000", "154902.475000", "154903.475000", "154904.475000", "154905.475000", "154906.475000", "154907.475000", "154908.475000", "154909.475000", "154910.475000", "154911.475000", "154912.475000", "154913.475000", "154914.475000", "154915.475000", "154916.475000", "154917.475000", "154918.475000", "154919.475000", "154920.475000", "154921.475000", "154922.475000", "154923.475000", "154924.475000", "154925.475000", "154926.475000", "154927.475000", "154928.475000", "154929.475000", "154930.475000", "154931.475000", "154932.475000", "154933.475000", "154934.475000", "154935.475000", "154936.475000", "154937.475000", "154938.475000", "154939.475000", "154940.475000", "154941.475000", "154942.475000", "154943.475000", "154944.475000", "154945.475000", "154946.475000", "154947.475000", "154948.475000", "154949.475000", "154950.475000", "154951.475000", "154952.475000", "154953.475000", "154954.475000", "154955.475000", "154956.475000", "154957.475000", "154958.475000", "154959.475000", "155000.475000", "155001.475000", "155002.475000", "155003.475000", "155004.475000", "155005.475000", "155006.475000"],
      "ContentTime": ["154804.477000", "154804.481000", "154804.491000", "154804.494000", "154804.497000", "154804.500000", "154804.503000", "154804.506000", "154804.509000", "154804.512000", "154804.515000", "154804.518000", "154804.526000", "154804.529000", "154804.532000", "154804.541000", "154804.543000", "154804.546000", "154804.549000", "154804.552000", "154804.555000", "154804.558000", "154824.446000", "154824.449000", "154824.452000", "154824.455000", "154824.458000", "154824.461000", "154824.464000", "154824.467000", "154824.470000", "154824.480000", "154824.483000", "154824.486000", "154824.489000", "154824.492000", "154824.495000", "154824.498000", "154824.501000", "154824.504000", "154824.507000", "154824.510000", "154824.513000", "154824.516000", "154824.519000", "154824.522000", "154824.524000", "154824.527000", "154824.530000", "154824.533000", "154844.446000", "154844.449000", "154844.452000", "154844.455000", "154844.458000", "154844.461000", "154844.464000", "154844.467000", "154844.469000", "154844.472000", "154844.475000", "154844.478000", "154844.481000", "154844.484000", "154844.487000", "154844.490000", "154844.493000", "154844.496000", "154844.499000", "154844.502000", "154844.504000", "154844.507000", "154844.510000", "154844.513000", "154844.516000", "154844.519000", "154844.522000", "154844.525000", "154844.528000", "154904.446000", "154904.449000", "154904.452000", "154904.455000", "154904.458000", "154904.461000", "154904.464000", "154904.466000", "154904.470000", "154904.472000", "154904.475000", "154904.478000", "154904.481000", "154904.484000", "154904.487000", "154904.490000", "154904.493000", "154904.496000", "154904.499000", "154904.502000", "154904.505000", "154904.508000", "154904.510000", "154904.513000", "154904.516000", "154904.519000", "154904.522000", "154904.525000", "154924.445000", "154924.454000", "154924.457000", "154924.460000", "154924.463000", "154924.466000", "154924.469000", "154924.472000", "154924.475000", "154924.478000", "154924.481000", "154924.484000", "154924.487000", "154924.490000", "154924.493000", "154924.495000", "154924.499000", "154924.501000", "154924.504000", "154924.507000", "154924.510000", "154924.513000", "154924.516000", "154924.519000", "154924.522000", "154924.525000", "154924.528000", "154924.530000", "154944.446000", "154944.449000", "154944.452000", "154944.455000", "154944.458000", "154944.461000", "154944.464000", "154944.467000", "154944.470000", "154944.473000", "154944.475000", "154944.478000", "154944.481000", "154944.484000", "154944.487000", "154944.490000", "154944.493000", "154944.496000", "154944.499000", "154944.502000", "154944.505000", "154944.508000", "154944.511000", "154944.514000", "154944.517000", "154944.519000", "154944.522000", "154944.525000", "155004.446000", "155004.449000", "155004.452000", "155004.455000", "155004.458000", "155004.461000", "155004.464000", "155004.467000", "155004.470000", "155004.473000", "155004.476000", "155004.479000", "155004.482000", "155004.484000", "155004.487000", "155004.490000", "155004.493000", "155004.496000", "155004.499000", "155004.502000", "155004.505000", "155004.508000", "155004.526000", "155004.529000", "155004.532000", "155007.953000", "155007.956000", "155007.959000", "155007.962000"],
      "InstanceCreationTime": ["154804.477000", "154804.481000", "154804.491000", "154804.494000", "154804.497000", "154804.500000", "154804.503000", "154804.506000", "154804.509000", "154804.512000", "154804.515000", "154804.518000", "154804.526000", "154804.529000", "154804.532000", "154804.541000", "154804.543000", "154804.546000", "154804.549000", "154804.552000", "154804.555000", "154804.558000", "154824.446000", "154824.449000", "154824.452000", "154824.455000", "154824.458000", "154824.461000", "154824.464000", "154824.467000", "154824.470000", "154824.480000", "154824.483000", "154824.486000", "154824.489000", "154824.492000", "154824.495000", "154824.498000", "154824.501000", "154824.504000", "154824.507000", "154824.510000", "154824.513000", "154824.516000", "154824.519000", "154824.522000", "154824.524000", "154824.527000", "154824.530000", "154824.533000", "154844.446000", "154844.449000", "154844.452000", "154844.455000", "154844.458000", "154844.461000", "154844.464000", "154844.467000", "154844.469000", "154844.472000", "154844.475000", "154844.478000", "154844.481000", "154844.484000", "154844.487000", "154844.490000", "154844.493000", "154844.496000", "154844.499000", "154844.502000", "154844.504000", "154844.507000", "154844.510000", "154844.513000", "154844.516000", "154844.519000", "154844.522000", "154844.525000", "154844.528000", "154904.446000", "154904.449000", "154904.452000", "154904.455000", "154904.458000", "154904.461000", "154904.464000", "154904.466000", "154904.470000", "154904.472000", "154904.475000", "154904.478000", "154904.481000", "154904.484000", "154904.487000", "154904.490000", "154904.493000", "154904.496000", "154904.499000", "154904.502000", "154904.505000", "154904.508000", "154904.510000", "154904.513000", "154904.516000", "154904.519000", "154904.522000", "154904.525000", "154924.445000", "154924.454000", "154924.457000", "154924.460000", "154924.463000", "154924.466000", "154924.469000", "154924.472000", "154924.475000", "154924.478000", "154924.481000", "154924.484000", "154924.487000", "154924.490000", "154924.493000", "154924.495000", "154924.499000", "154924.501000", "154924.504000", "154924.507000", "154924.510000", "154924.513000", "154924.516000", "154924.519000", "154924.522000", "154924.525000", "154924.528000", "154924.530000", "154944.446000", "154944.449000", "154944.452000", "154944.455000", "154944.458000", "154944.461000", "154944.464000", "154944.467000", "154944.470000", "154944.473000", "154944.475000", "154944.478000", "154944.481000", "154944.484000", "154944.487000", "154944.490000", "154944.493000", "154944.496000", "154944.499000", "154944.502000", "154944.505000", "154944.508000", "154944.511000", "154944.514000", "154944.517000", "154944.519000", "154944.522000", "154944.525000", "155004.446000", "155004.449000", "155004.452000", "155004.455000", "155004.458000", "155004.461000", "155004.464000", "155004.467000", "155004.470000", "155004.473000", "155004.476000", "155004.479000", "155004.482000", "155004.484000", "155004.487000", "155004.490000", "155004.493000", "155004.496000", "155004.499000", "155004.502000", "155004.505000", "155004.508000", "155004.526000", "155004.529000", "155004.532000", "155007.953000", "155007.956000", "155007.959000", "155007.962000"],
      "InstanceNumber": [1, 2, 3, 4, 5, 6, 7, 8, 9, 10, 11, 12, 13, 14, 15, 16, 17, 18, 19, 20, 21, 22, 23, 24, 25, 26, 27, 28, 29, 30, 31, 32, 33, 34, 35, 36, 37, 38, 39, 40, 41, 42, 43, 44, 45, 46, 47, 48, 49, 50, 51, 52, 53, 54, 55, 56, 57, 58, 59, 60, 61, 62, 63, 64, 65, 66, 67, 68, 69, 70, 71, 72, 73, 74, 75, 76, 77, 78, 79, 80, 81, 82, 83, 84, 85, 86, 87, 88, 89, 90, 91, 92, 93, 94, 95, 96, 97, 98, 99, 100, 101, 102, 103, 104, 105, 106, 107, 108, 109, 110, 111, 112, 113, 114, 115, 116, 117, 118, 119, 120, 121, 122, 123, 124, 125, 126, 127, 128, 129, 130, 131, 132, 133, 134, 135, 136, 137, 138, 139, 140, 141, 142, 143, 144, 145, 146, 147, 148, 149, 150, 151, 152, 153, 154, 155, 156, 157, 158, 159, 160, 161, 162, 163, 164, 165, 166, 167, 168, 169, 170, 171, 172, 173, 174, 175, 176, 177, 178, 179, 180, 181, 182, 183, 184, 185, 186, 187, 188, 189, 190, 191, 192],
      "LargestImagePixelValue": [43131, 40880, 42169, 38282, 41665, 38296, 38642, 38082, 41283, 40448, 46272, 41065, 40478, 46148, 42082, 41583, 40142, 38358, 40647, 36539, 45006, 40448, 39242, 39490, 40103, 40969, 41422, 42221, 40662, 40285, 39595, 41708, 50597, 39262, 43712, 46040, 40221, 42270, 40277, 42255, 43305, 42598, 40008, 38009, 46076, 42427, 39091, 37821, 40465, 39155, 46650, 42162, 39023, 38251, 37569, 39298, 35967, 44579, 42085, 42576, 38109, 41193, 37385, 41575, 43916, 42805, 39227, 38148, 41704, 39362, 38646, 39090, 38839, 38576, 39978, 39366, 41984, 39359, 38106, 36853, 43119, 41757, 42153, 40490, 39616, 39507, 43833, 43697, 39505, 38100, 37713, 43093, 39202, 38772, 38493, 41737, 37998, 38321, 37994, 38538, 38773, 39514, 38936, 39383, 39054, 38886, 37824, 38516, 38791, 42138, 40365, 38450, 38958, 38257, 38597, 39735, 41652, 38797, 39764, 40765, 39429, 39051, 38753, 39338, 38267, 38216, 39684, 39495, 41685, 40892, 42798, 39342, 42692, 39828, 37991, 39191, 37647, 40421, 46641, 42425, 37992, 39349, 39942, 37561, 41804, 39135, 44366, 45729, 42925, 36901, 41228, 39730, 44713, 39624, 39988, 44279, 40310, 39491, 39851, 39284, 39383, 36352, 45100, 42049, 39976, 42849, 38538, 39751, 39271, 38540, 39049, 39086, 41717, 42055, 41080, 40758, 40534, 38866, 37524, 38886, 50373, 38968, 40851, 36620, 43842, 40009, 40179, 42208, 37344, 44345, 41788, 37233],
      "WindowCenter": [10155.0, 10088.0, 10086.0, 10032.0, 10066.0, 10045.0, 10064.0, 10075.0, 10119.0, 10105.0, 10156.0, 10103.0, 10091.0, 10138.0, 10091.0, 10089.0, 10063.0, 10044.0, 10068.0, 10012.0, 10106.0, 10066.0, 10067.0, 10073.0, 10073.0, 10076.0, 10080.0, 10084.0, 10067.0, 10058.0, 10044.0, 10067.0, 10146.0, 10052.0, 10093.0, 10122.0, 10062.0, 10074.0, 10050.0, 10064.0, 10065.0, 10061.0, 10044.0, 10043.0, 10113.0, 10065.0, 10020.0, 9993.0, 10024.0, 10004.0, 10064.0, 10016.0, 9981.0, 9976.0, 9977.0, 9998.0, 9958.0, 10036.0, 10016.0, 10035.0, 9980.0, 10017.0, 9982.0, 10023.0, 10057.0, 10075.0, 10049.0, 10035.0, 10064.0, 10035.0, 10030.0, 10028.0, 10031.0, 10028.0, 10034.0, 10036.0, 10055.0, 10027.0, 10008.0, 9981.0, 10048.0, 10041.0, 10045.0, 10028.0, 10008.0, 10005.0, 10060.0, 10057.0, 10024.0, 10018.0, 10008.0, 10054.0, 9999.0, 9977.0, 9987.0, 10012.0, 9981.0, 9986.0, 9994.0, 10005.0, 10024.0, 10027.0, 9995.0, 9987.0, 9986.0, 9983.0, 9970.0, 9970.0, 9987.0, 10027.0, 10012.0, 9999.0, 9991.0, 10000.0, 10007.0, 10012.0, 10033.0, 10004.0, 10026.0, 10029.0, 10019.0, 10012.0, 10014.0, 10032.0, 10026.0, 10020.0, 10036.0, 10020.0, 10034.0, 10028.0, 10043.0, 10020.0, 10061.0, 10060.0, 10063.0, 10081.0, 10086.0, 10116.0, 10168.0, 10110.0, 10041.0, 10030.0, 10037.0, 10005.0, 10044.0, 10009.0, 10061.0, 10081.0, 10061.0, 9998.0, 10043.0, 10014.0, 10077.0, 10020.0, 10031.0, 10071.0, 10039.0, 10028.0, 10030.0, 10009.0, 10007.0, 9971.0, 10058.0, 10030.0, 10003.0, 10039.0, 9977.0, 9995.0, 9985.0, 9985.0, 10001.0, 10002.0, 10041.0, 10031.0, 10030.0, 10009.0, 10036.0, 9995.0, 9984.0, 10001.0, 10094.0, 9997.0, 10008.0, 9945.0, 10020.0, 9989.0, 9997.0, 10018.0, 10003.0, 10098.0, 10094.0, 10031.0],
      "WindowWidth": [21683.0, 21508.0, 21486.0, 21371.0, 21428.0, 21385.0, 21430.0, 21460.0, 21545.0, 21510.0, 21602.0, 21501.0, 21471.0, 21557.0, 21470.0, 21462.0, 21414.0, 21378.0, 21424.0, 21317.0, 21492.0, 21420.0, 21431.0, 21445.0, 21446.0, 21442.0, 21449.0, 21454.0, 21425.0, 21401.0, 21373.0, 21416.0, 21562.0, 21393.0, 21469.0, 21515.0, 21412.0, 21431.0, 21381.0, 21410.0, 21403.0, 21398.0, 21373.0, 21380.0, 21503.0, 21411.0, 21327.0, 21259.0, 21317.0, 21284.0, 21382.0, 21291.0, 21239.0, 21226.0, 21236.0, 21273.0, 21200.0, 21336.0, 21293.0, 21340.0, 21239.0, 21309.0, 21247.0, 21310.0, 21372.0, 21422.0, 21388.0, 21362.0, 21417.0, 21350.0, 21342.0, 21344.0, 21351.0, 21343.0, 21352.0, 21355.0, 21388.0, 21330.0, 21296.0, 21245.0, 21366.0, 21362.0, 21364.0, 21334.0, 21294.0, 21284.0, 21403.0, 21383.0, 21338.0, 21334.0, 21303.0, 21395.0, 21272.0, 21233.0, 21253.0, 21297.0, 21243.0, 21253.0, 21269.0, 21295.0, 21338.0, 21346.0, 21274.0, 21262.0, 21254.0, 21257.0, 21231.0, 21222.0, 21260.0, 21336.0, 21309.0, 21286.0, 21263.0, 21288.0, 21304.0, 21314.0, 21345.0, 21289.0, 21344.0, 21339.0, 21322.0, 21308.0, 21315.0, 21358.0, 21341.0, 21336.0, 21361.0, 21328.0, 21346.0, 21338.0, 21362.0, 21330.0, 21406.0, 21425.0, 21435.0, 21466.0, 21484.0, 21539.0, 21631.0, 21516.0, 21378.0, 21343.0, 21361.0, 21301.0, 21375.0, 21305.0, 21393.0, 21433.0, 21399.0, 21292.0, 21367.0, 21305.0, 21429.0, 21316.0, 21342.0, 21417.0, 21362.0, 21343.0, 21339.0, 21295.0, 21292.0, 21228.0, 21386.0, 21336.0, 21280.0, 21362.0, 21228.0, 21259.0, 21249.0, 21250.0, 21283.0, 21281.0, 21353.0, 21331.0, 21338.0, 21290.0, 21355.0, 21268.0, 21253.0, 21276.0, 21445.0, 21283.0, 21292.0, 21168.0, 21304.0, 21254.0, 21269.0, 21311.0, 21295.0, 21482.0, 21484.0, 21358.0]
    },
    "slices": {}
  },
  "NumberOfVolumes": 192
}