{
  "AcquisitionMatrixPE": 104,
  "AcquisitionNumber": 1,
  "AcquisitionTime": "11:52:50.640000",
  "BandwidthPerPixelPhaseEncode": 16.578,
  "BaseResolution": 104,
  "BodyPartExamined": "BRAIN",
  "ConsistencyInfo": "N4_VE11C_LATEST_20160120",
  "ConversionSoftware": "dcm2niix",
  "ConversionSoftwareVersion": "v1.0.20190902",
  "DerivedVendorReportedEchoSpacing": 0.000580009,
  "DeviceSerialNumber": "166018",
  "DwellTime": 2.1e-06,
  "EchoTime": 0.037,
  "EchoTrainLength": 104,
  "EffectiveEchoSpacing": 0.000580009,
  "FlipAngle": 68,
  "ImageComments": "Unaliased_MB6_PE3_LB",
  "ImageOrientationPatientDICOM": [0.999537, 0.0119348, 0.0279765, -0.00575695, 0.977409, -0.21128],
  "ImageType": [
    "ORIGINAL",
    "PRIMARY",
    "M",
    "MB",
    "ND",
    "MOSAIC"
],
  "ImagingFrequency": 123.191,
  "InPlanePhaseEncodingDirectionDICOM": "COL",
  "InstitutionAddress": "Washington_Place_6_NYC_NYC_US_10003",
  "InstitutionName": "NYU_Center_for_Brain_Imaging",
  "InstitutionalDepartmentName": "Department",
  "MRAcquisitionType": "2D",
  "MagneticFieldStrength": 3,
  "Manufacturer": "Siemens",
  "ManufacturersModelName": "Prisma",
  "Modality": "MR",
  "MultibandAccelerationFactor": 6,
  "PartialFourier": 1,
  "PatientPosition": "HFS",
  "PercentPhaseFOV": 100,
  "PhaseEncodingDirection": "j",
  "PhaseEncodingSteps": 104,
  "PhaseResolution": 1,
  "PixelBandwidth": 2290,
  "ProcedureStepDescription": "Investigators_Winawer",
  "ProtocolName": "cmrr_mbepi_s6_2mm_66sl_PA_task-prf",
  "PulseSequenceDetails": "%CustomerSeq%_cmrr_mbep2d_bold",
  "ReceiveCoilActiveElements": "HC1-7",
  "ReceiveCoilName": "HeadNeck_64",
  "ReconMatrixPE": 104,
  "RepetitionTime": 1,
  "SAR": 0.0693344,
  "ScanOptions": "FS",
  "ScanningSequence": "EP",
  "SequenceName": "epfid2d1_104",
  "SequenceVariant": "SK_SS",
  "SeriesDescription": "cmrr_mbepi_s6_2mm_66sl_PA_task-prf",
  "SeriesNumber": 18,
  "ShimSetting": [260, -12599, -8432, 374, -73, -1, -69, 5],
  "SliceThickness": 2,
  "SliceTiming": [0, 0.535, 0.09, 0.625, 0.18, 0.7125, 0.2675, 0.8025, 0.3575, 0.8925, 0.445, 0, 0.535, 0.09, 0.625, 0.18, 0.7125, 0.2675, 0.8025, 0.3575, 0.8925, 0.445, 0, 0.535, 0.09, 0.625, 0.18, 0.7125, 0.2675, 0.8025, 0.3575, 0.8925, 0.445, 0, 0.535, 0.09, 0.625, 0.18, 0.7125, 0.2675, 0.8025, 0.3575, 0.8925, 0.445, 0, 0.535, 0.09, 0.625, 0.18, 0.7125, 0.2675, 0.8025, 0.3575, 0.8925, 0.445, 0, 0.535, 0.09, 0.625, 0.18, 0.7125, 0.2675, 0.8025, 0.3575, 0.8925, 0.445],
  "SoftwareVersions": "syngo_MR_E11",
  "SpacingBetweenSlices": 2,
  "StationName": "AWP166018",
  "TaskName": "prf",
  "TotalReadoutTime": 0.0597409,
  "TxRefAmp": 249.54,
  "WipMemBlock": "73e2b6d2-0ed9-4a02-843b-f1fcfc3dd191||Sequence: R016 ve11c/master r/8780670; Nov 27 2017 15:05:12 by eja",
  "dcmmeta_affine": [
    [-1.9990746974945068, -0.011513893492519855, 0.05973207205533981, 106.42056274414062],
    [-0.023869547992944717, 1.954817295074463, -0.4220421314239502, -71.32170867919922],
    [0.05595296993851662, 0.4225597679615021, 1.9540503025054932, -84.3438949584961],
    [0.0, 0.0, 0.0, 1.0]
],
  "dcmmeta_reorient_transform": [
    [0.0, -1.0, 0.0, 103.0],
    [1.0, 0.0, 0.0, 0.0],
    [0.0, 0.0, 1.0, 0.0],
    [0.0, 0.0, 0.0, 1.0]
],
  "dcmmeta_shape": [104, 104, 66, 192],
  "dcmmeta_slice_dim": 2,
  "dcmmeta_version": 0.6,
  "global": {
    "const": {
      "AccessionNumber": "k2dxvqw6",
      "AcquisitionMatrix": [104, 0, 0, 104],
      "AngioFlag": "N",
      "BitsAllocated": 16,
      "BitsStored": 16,
      "BodyPartExamined": "BRAIN",
      "Columns": 936,
      "EchoNumbers": 1,
      "EchoTime": 37.0,
      "EchoTrainLength": 104,
      "FlipAngle": 68.0,
      "HighBit": 15,
      "ImageOrientationPatient": [0.99953733169658, 0.01193477430348, 0.02797648489712, -0.0057569468846, 0.97740865078441, -0.2112798782051],
      "ImagePositionPatient": [-932.05991396374, -953.15820306915, 111.6881832591],
      "ImageType": [
        "ORIGINAL",
        "PRIMARY",
        "M",
        "MB",
        "ND",
        "MOSAIC"
],
      "ImagedNucleus": "1H",
      "ImagingFrequency": 123.190773,
      "InPlanePhaseEncodingDirection": "COL",
      "MRAcquisitionType": "2D",
      "MagneticFieldStrength": 3.0,
      "Manufacturer": "SIEMENS",
      "ManufacturerModelName": "Prisma",
      "Modality": "MR",
      "NumberOfAverages": 1.0,
      "NumberOfPhaseEncodingSteps": 104,
      "PercentPhaseFieldOfView": 100.0,
      "PercentSampling": 100.0,
      "PerformedProcedureStepStartTime": "112402.648000",
      "PhotometricInterpretation": "MONOCHROME2",
      "PixelBandwidth": 2290.0,
      "PixelRepresentation": 0,
      "PixelSpacing": [2.0, 2.0],
      "ProtocolName": "cmrr_mbepi_s6_2mm_66sl_PA_task-prf",
      "RepetitionTime": 1000.0,
      "Rows": 936,
      "SAR": 0.06933443860276,
      "SamplesPerPixel": 1,
      "ScanOptions": "FS",
      "ScanningSequence": "EP",
      "SequenceName": "epfid2d1_104",
      "SequenceVariant": [
        "SK",
        "SS"
],
      "SeriesDescription": "cmrr_mbepi_s6_2mm_66sl_PA_task-prf",
      "SeriesNumber": 18,
      "SeriesTime": "115415.367000",
      "SliceLocation": -64.177362474653,
      "SliceThickness": 2.0,
      "SmallestImagePixelValue": 0,
      "SoftwareVersions": "syngo MR E11",
      "SpacingBetweenSlices": 2.0000000428902,
      "SpecificCharacterSet": "ISO_IR 100",
      "StudyID": "1",
      "StudyTime": "112402.582000",
      "TransmitCoilName": "Body",
      "VariableFlipAngleFlag": "N",
      "WindowCenterWidthExplanation": "Algo1",
      "dBdt": 0.0},
    "slices": {}
  },
  "time": {
    "samples": {
      "AcquisitionNumber": [1, 2, 3, 4, 5, 6, 7, 8, 9, 10, 11, 12, 13, 14, 15, 16, 17, 18, 19, 20, 21, 22, 23, 24, 25, 26, 27, 28, 29, 30, 31, 32, 33, 34, 35, 36, 37, 38, 39, 40, 41, 42, 43, 44, 45, 46, 47, 48, 49, 50, 51, 52, 53, 54, 55, 56, 57, 58, 59, 60, 61, 62, 63, 64, 65, 66, 67, 68, 69, 70, 71, 72, 73, 74, 75, 76, 77, 78, 79, 80, 81, 82, 83, 84, 85, 86, 87, 88, 89, 90, 91, 92, 93, 94, 95, 96, 97, 98, 99, 100, 101, 102, 103, 104, 105, 106, 107, 108, 109, 110, 111, 112, 113, 114, 115, 116, 117, 118, 119, 120, 121, 122, 123, 124, 125, 126, 127, 128, 129, 130, 131, 132, 133, 134, 135, 136, 137, 138, 139, 140, 141, 142, 143, 144, 145, 146, 147, 148, 149, 150, 151, 152, 153, 154, 155, 156, 157, 158, 159, 160, 161, 162, 163, 164, 165, 166, 167, 168, 169, 170, 171, 172, 173, 174, 175, 176, 177, 178, 179, 180, 181, 182, 183, 184, 185, 186, 187, 188, 189, 190, 191, 192],
      "AcquisitionTime": ["115250.640000", "115251.640000", "115252.640000", "115253.640000", "115254.640000", "115255.640000", "115256.640000", "115257.640000", "115258.640000", "115259.640000", "115300.640000", "115301.640000", "115302.640000", "115303.640000", "115304.640000", "115305.640000", "115306.640000", "115307.640000", "115308.640000", "115309.640000", "115310.640000", "115311.640000", "115312.640000", "115313.640000", "115314.640000", "115315.640000", "115316.640000", "115317.640000", "115318.640000", "115319.640000", "115320.640000", "115321.640000", "115322.640000", "115323.640000", "115324.640000", "115325.640000", "115326.640000", "115327.640000", "115328.640000", "115329.640000", "115330.640000", "115331.640000", "115332.640000", "115333.640000", "115334.640000", "115335.640000", "115336.640000", "115337.640000", "115338.640000", "115339.640000", "115340.640000", "115341.640000", "115342.640000", "115343.640000", "115344.640000", "115345.640000", "115346.640000", "115347.640000", "115348.640000", "115349.640000", "115350.640000", "115351.640000", "115352.640000", "115353.640000", "115354.640000", "115355.640000", "115356.640000", "115357.640000", "115358.640000", "115359.640000", "115400.640000", "115401.640000", "115402.640000", "115403.640000", "115404.640000", "115405.640000", "115406.640000", "115407.640000", "115408.640000", "115409.640000", "115410.640000", "115411.640000", "115412.640000", "115413.640000", "115414.640000", "115415.640000", "115416.640000", "115417.640000", "115418.640000", "115419.640000", "115420.640000", "115421.640000", "115422.640000", "115423.640000", "115424.640000", "115425.640000", "115426.640000", "115427.640000", "115428.640000", "115429.640000", "115430.640000", "115431.640000", "115432.640000", "115433.640000", "115434.640000", "115435.640000", "115436.640000", "115437.640000", "115438.640000", "115439.640000", "115440.640000", "115441.640000", "115442.640000", "115443.640000", "115444.640000", "115445.640000", "115446.640000", "115447.640000", "115448.640000", "115449.640000", "115450.640000", "115451.640000", "115452.640000", "115453.640000", "115454.640000", "115455.640000", "115456.640000", "115457.640000", "115458.640000", "115459.640000", "115500.640000", "115501.640000", "115502.640000", "115503.640000", "115504.640000", "115505.640000", "115506.640000", "115507.640000", "115508.640000", "115509.640000", "115510.640000", "115511.640000", "115512.640000", "115513.640000", "115514.640000", "115515.640000", "115516.640000", "115517.640000", "115518.640000", "115519.640000", "115520.640000", "115521.640000", "115522.640000", "115523.640000", "115524.640000", "115525.640000", "115526.640000", "115527.640000", "115528.640000", "115529.640000", "115530.640000", "115531.640000", "115532.640000", "115533.640000", "115534.640000", "115535.640000", "115536.640000", "115537.640000", "115538.640000", "115539.640000", "115540.640000", "115541.640000", "115542.640000", "115543.640000", "115544.640000", "115545.640000", "115546.640000", "115547.640000", "115548.640000", "115549.640000", "115550.640000", "115551.640000", "115552.640000", "115553.640000", "115554.640000", "115555.640000", "115556.640000", "115557.640000", "115558.640000", "115559.640000", "115600.640000", "115601.640000"],
      "ContentTime": ["115415.370000", "115415.373000", "115415.376000", "115415.379000", "115415.382000", "115415.385000", "115415.388000", "115415.391000", "115415.393000", "115415.396000", "115415.399000", "115415.413000", "115415.415000", "115415.418000", "115415.421000", "115415.424000", "115415.427000", "115415.430000", "115415.433000", "115415.436000", "115415.439000", "115415.442000", "115415.444000", "115415.453000", "115415.460000", "115415.463000", "115415.466000", "115415.469000", "115415.472000", "115415.475000", "115415.478000", "115415.481000", "115415.483000", "115415.486000", "115415.489000", "115415.492000", "115415.495000", "115415.498000", "115415.501000", "115435.343000", "115435.346000", "115435.349000", "115435.352000", "115435.354000", "115435.357000", "115435.360000", "115435.363000", "115435.366000", "115435.369000", "115435.372000", "115435.375000", "115435.378000", "115435.380000", "115435.383000", "115435.386000", "115435.389000", "115435.392000", "115435.395000", "115435.398000", "115435.401000", "115435.404000", "115435.406000", "115435.410000", "115435.413000", "115435.416000", "115435.419000", "115435.422000", "115455.343000", "115455.346000", "115455.349000", "115455.352000", "115455.354000", "115455.357000", "115455.360000", "115455.363000", "115455.366000", "115455.369000", "115455.372000", "115455.375000", "115455.378000", "115455.381000", "115455.383000", "115455.386000", "115455.389000", "115455.392000", "115455.395000", "115455.398000", "115455.401000", "115455.404000", "115455.407000", "115455.410000", "115455.413000", "115455.416000", "115455.419000", "115455.422000", "115515.343000", "115515.354000", "115515.356000", "115515.359000", "115515.362000", "115515.365000", "115515.368000", "115515.371000", "115515.374000", "115515.377000", "115515.380000", "115515.382000", "115515.385000", "115515.388000", "115515.391000", "115515.394000", "115515.397000", "115515.400000", "115515.403000", "115515.406000", "115515.409000", "115515.412000", "115515.415000", "115515.418000", "115515.421000", "115515.424000", "115515.427000", "115515.429000", "115535.343000", "115535.346000", "115535.349000", "115535.352000", "115535.354000", "115535.357000", "115535.360000", "115535.363000", "115535.366000", "115535.369000", "115535.372000", "115535.375000", "115535.377000", "115535.380000", "115535.383000", "115535.386000", "115535.389000", "115535.392000", "115535.395000", "115535.398000", "115535.401000", "115535.404000", "115535.407000", "115535.410000", "115535.413000", "115535.416000", "115535.419000", "115535.422000", "115555.343000", "115555.346000", "115555.349000", "115555.352000", "115555.355000", "115555.357000", "115555.360000", "115555.363000", "115555.366000", "115555.369000", "115555.372000", "115555.375000", "115555.378000", "115555.381000", "115555.384000", "115555.387000", "115555.389000", "115555.392000", "115555.395000", "115555.398000", "115555.401000", "115555.404000", "115555.408000", "115555.411000", "115555.414000", "115555.417000", "115555.419000", "115555.422000", "115555.425000", "115603.634000", "115603.637000", "115603.640000", "115603.643000", "115603.645000", "115603.648000", "115603.651000", "115603.654000", "115603.657000", "115603.660000", "115603.663000", "115603.666000"],
      "InstanceCreationTime": ["115415.370000", "115415.373000", "115415.376000", "115415.379000", "115415.382000", "115415.385000", "115415.388000", "115415.391000", "115415.393000", "115415.396000", "115415.399000", "115415.413000", "115415.415000", "115415.418000", "115415.421000", "115415.424000", "115415.427000", "115415.430000", "115415.433000", "115415.436000", "115415.439000", "115415.442000", "115415.444000", "115415.453000", "115415.460000", "115415.463000", "115415.466000", "115415.469000", "115415.472000", "115415.475000", "115415.478000", "115415.481000", "115415.483000", "115415.486000", "115415.489000", "115415.492000", "115415.495000", "115415.498000", "115415.501000", "115435.343000", "115435.346000", "115435.349000", "115435.352000", "115435.354000", "115435.357000", "115435.360000", "115435.363000", "115435.366000", "115435.369000", "115435.372000", "115435.375000", "115435.378000", "115435.380000", "115435.383000", "115435.386000", "115435.389000", "115435.392000", "115435.395000", "115435.398000", "115435.401000", "115435.404000", "115435.406000", "115435.410000", "115435.413000", "115435.416000", "115435.419000", "115435.422000", "115455.343000", "115455.346000", "115455.349000", "115455.352000", "115455.354000", "115455.357000", "115455.360000", "115455.363000", "115455.366000", "115455.369000", "115455.372000", "115455.375000", "115455.378000", "115455.381000", "115455.383000", "115455.386000", "115455.389000", "115455.392000", "115455.395000", "115455.398000", "115455.401000", "115455.404000", "115455.407000", "115455.410000", "115455.413000", "115455.416000", "115455.419000", "115455.422000", "115515.343000", "115515.354000", "115515.356000", "115515.359000", "115515.362000", "115515.365000", "115515.368000", "115515.371000", "115515.374000", "115515.377000", "115515.380000", "115515.382000", "115515.385000", "115515.388000", "115515.391000", "115515.394000", "115515.397000", "115515.400000", "115515.403000", "115515.406000", "115515.409000", "115515.412000", "115515.415000", "115515.418000", "115515.421000", "115515.424000", "115515.427000", "115515.429000", "115535.343000", "115535.346000", "115535.349000", "115535.352000", "115535.354000", "115535.357000", "115535.360000", "115535.363000", "115535.366000", "115535.369000", "115535.372000", "115535.375000", "115535.377000", "115535.380000", "115535.383000", "115535.386000", "115535.389000", "115535.392000", "115535.395000", "115535.398000", "115535.401000", "115535.404000", "115535.407000", "115535.410000", "115535.413000", "115535.416000", "115535.419000", "115535.422000", "115555.343000", "115555.346000", "115555.349000", "115555.352000", "115555.355000", "115555.357000", "115555.360000", "115555.363000", "115555.366000", "115555.369000", "115555.372000", "115555.375000", "115555.378000", "115555.381000", "115555.384000", "115555.387000", "115555.389000", "115555.392000", "115555.395000", "115555.398000", "115555.401000", "115555.404000", "115555.408000", "115555.411000", "115555.414000", "115555.417000", "115555.419000", "115555.422000", "115555.425000", "115603.634000", "115603.637000", "115603.640000", "115603.643000", "115603.645000", "115603.648000", "115603.651000", "115603.654000", "115603.657000", "115603.660000", "115603.663000", "115603.666000"],
      "InstanceNumber": [1, 2, 3, 4, 5, 6, 7, 8, 9, 10, 11, 12, 13, 14, 15, 16, 17, 18, 19, 20, 21, 22, 23, 24, 25, 26, 27, 28, 29, 30, 31, 32, 33, 34, 35, 36, 37, 38, 39, 40, 41, 42, 43, 44, 45, 46, 47, 48, 49, 50, 51, 52, 53, 54, 55, 56, 57, 58, 59, 60, 61, 62, 63, 64, 65, 66, 67, 68, 69, 70, 71, 72, 73, 74, 75, 76, 77, 78, 79, 80, 81, 82, 83, 84, 85, 86, 87, 88, 89, 90, 91, 92, 93, 94, 95, 96, 97, 98, 99, 100, 101, 102, 103, 104, 105, 106, 107, 108, 109, 110, 111, 112, 113, 114, 115, 116, 117, 118, 119, 120, 121, 122, 123, 124, 125, 126, 127, 128, 129, 130, 131, 132, 133, 134, 135, 136, 137, 138, 139, 140, 141, 142, 143, 144, 145, 146, 147, 148, 149, 150, 151, 152, 153, 154, 155, 156, 157, 158, 159, 160, 161, 162, 163, 164, 165, 166, 167, 168, 169, 170, 171, 172, 173, 174, 175, 176, 177, 178, 179, 180, 181, 182, 183, 184, 185, 186, 187, 188, 189, 190, 191, 192],
      "LargestImagePixelValue": [31585, 31038, 29966, 30588, 30638, 30216, 30432, 29771, 30778, 30578, 30161, 30029, 29634, 30432, 29626, 30433, 29977, 29831, 29967, 30243, 29906, 30758, 30677, 30234, 30491, 30770, 30047, 30384, 30507, 30056, 29646, 30428, 30113, 29918, 30328, 29956, 30494, 30093, 30757, 30120, 30196, 30379, 30552, 30256, 30110, 30329, 30180, 30581, 30123, 30528, 30233, 30236, 30246, 29995, 30527, 30297, 30579, 30526, 30126, 30401, 30314, 30056, 30348, 30234, 30327, 30273, 30087, 30543, 30677, 30212, 30360, 30292, 30318, 30461, 30146, 30648, 29703, 31180, 30477, 30367, 30439, 30143, 30482, 29836, 30305, 29872, 30301, 30876, 29732, 30470, 29878, 30166, 30828, 30410, 29948, 30136, 30876, 30431, 30169, 30137, 30139, 30216, 29719, 30132, 30017, 30634, 30046, 30363, 29825, 30353, 29763, 29698, 30077, 30094, 30031, 29841, 29808, 29664, 29977, 29956, 29914, 29836, 30114, 30155, 29989, 30486, 29866, 30578, 30215, 30162, 29801, 30385, 30220, 30061, 30104, 30527, 30322, 30354, 30339, 30163, 30333, 30494, 30599, 30630, 30620, 32047, 31656, 29960, 30607, 30284, 30150, 30857, 30300, 30413, 30113, 30491, 31333, 30077, 30447, 30250, 30584, 31114, 30724, 30358, 30343, 31895, 30800, 30681, 30523, 30962, 30383, 30306, 30848, 30683, 30663, 29921, 30407, 31419, 30477, 30443, 33454, 31068, 30621, 30170, 30453, 31517, 30315, 31271, 30507, 31007, 31210, 30616],
      "WindowCenter": [9314.0, 9295.0, 9266.0, 9270.0, 9277.0, 9262.0, 9262.0, 9255.0, 9266.0, 9269.0, 9262.0, 9262.0, 9257.0, 9269.0, 9249.0, 9261.0, 9264.0, 9267.0, 9265.0, 9273.0, 9259.0, 9261.0, 9255.0, 9244.0, 9240.0, 9265.0, 9253.0, 9263.0, 9261.0, 9255.0, 9249.0, 9250.0, 9243.0, 9236.0, 9241.0, 9236.0, 9242.0, 9245.0, 9257.0, 9255.0, 9254.0, 9263.0, 9263.0, 9271.0, 9254.0, 9255.0, 9256.0, 9259.0, 9246.0, 9243.0, 9236.0, 9234.0, 9240.0, 9234.0, 9234.0, 9241.0, 9248.0, 9243.0, 9243.0, 9242.0, 9243.0, 9235.0, 9234.0, 9235.0, 9242.0, 9250.0, 9246.0, 9256.0, 9262.0, 9258.0, 9262.0, 9263.0, 9255.0, 9255.0, 9247.0, 9261.0, 9249.0, 9248.0, 9263.0, 9263.0, 9263.0, 9259.0, 9263.0, 9246.0, 9244.0, 9237.0, 9251.0, 9258.0, 9256.0, 9262.0, 9241.0, 9248.0, 9258.0, 9252.0, 9253.0, 9257.0, 9260.0, 9244.0, 9237.0, 9242.0, 9242.0, 9243.0, 9227.0, 9225.0, 9216.0, 9227.0, 9214.0, 9221.0, 9217.0, 9230.0, 9227.0, 9227.0, 9235.0, 9238.0, 9238.0, 9237.0, 9236.0, 9238.0, 9254.0, 9266.0, 9268.0, 9277.0, 9275.0, 9274.0, 9274.0, 9265.0, 9250.0, 9268.0, 9246.0, 9247.0, 9237.0, 9241.0, 9234.0, 9225.0, 9225.0, 9240.0, 9243.0, 9262.0, 9273.0, 9268.0, 9265.0, 9262.0, 9260.0, 9260.0, 9251.0, 9261.0, 9261.0, 9234.0, 9239.0, 9233.0, 9226.0, 9232.0, 9225.0, 9231.0, 9225.0, 9232.0, 9244.0, 9226.0, 9234.0, 9234.0, 9249.0, 9258.0, 9261.0, 9253.0, 9255.0, 9279.0, 9261.0, 9260.0, 9253.0, 9258.0, 9243.0, 9242.0, 9248.0, 9241.0, 9240.0, 9233.0, 9233.0, 9246.0, 9234.0, 9241.0, 9277.0, 9246.0, 9241.0, 9235.0, 9242.0, 9249.0, 9236.0, 9253.0, 9226.0, 9241.0, 9255.0, 9249.0],
      "WindowWidth": [19708.0, 19662.0, 19612.0, 19612.0, 19624.0, 19596.0, 19598.0, 19585.0, 19602.0, 19611.0, 19599.0, 19600.0, 19595.0, 19614.0, 19580.0, 19600.0, 19609.0, 19618.0, 19613.0, 19627.0, 19604.0, 19600.0, 19587.0, 19561.0, 19555.0, 19603.0, 19580.0, 19599.0, 19594.0, 19581.0, 19571.0, 19569.0, 19554.0, 19544.0, 19552.0, 19545.0, 19554.0, 19564.0, 19585.0, 19589.0, 19587.0, 19602.0, 19600.0, 19615.0, 19580.0, 19582.0, 19582.0, 19583.0, 19559.0, 19552.0, 19540.0, 19534.0, 19545.0, 19533.0, 19533.0, 19544.0, 19558.0, 19551.0, 19551.0, 19547.0, 19550.0, 19535.0, 19535.0, 19538.0, 19553.0, 19569.0, 19566.0, 19587.0, 19595.0, 19594.0, 19596.0, 19600.0, 19583.0, 19583.0, 19567.0, 19594.0, 19572.0, 19566.0, 19599.0, 19598.0, 19598.0, 19594.0, 19596.0, 19564.0, 19557.0, 19548.0, 19573.0, 19587.0, 19591.0, 19599.0, 19560.0, 19570.0, 19582.0, 19573.0, 19575.0, 19587.0, 19588.0, 19557.0, 19543.0, 19553.0, 19551.0, 19556.0, 19525.0, 19517.0, 19500.0, 19516.0, 19495.0, 19507.0, 19507.0, 19529.0, 19530.0, 19531.0, 19547.0, 19555.0, 19554.0, 19552.0, 19549.0, 19554.0, 19580.0, 19608.0, 19612.0, 19629.0, 19622.0, 19620.0, 19619.0, 19600.0, 19571.0, 19598.0, 19562.0, 19562.0, 19545.0, 19547.0, 19535.0, 19521.0, 19517.0, 19545.0, 19556.0, 19598.0, 19621.0, 19612.0, 19602.0, 19592.0, 19585.0, 19583.0, 19565.0, 19580.0, 19577.0, 19532.0, 19539.0, 19529.0, 19518.0, 19526.0, 19514.0, 19521.0, 19514.0, 19526.0, 19545.0, 19516.0, 19533.0, 19534.0, 19563.0, 19580.0, 19588.0, 19577.0, 19580.0, 19619.0, 19589.0, 19585.0, 19572.0, 19575.0, 19549.0, 19545.0, 19555.0, 19541.0, 19539.0, 19529.0, 19529.0, 19547.0, 19532.0, 19541.0, 19599.0, 19551.0, 19545.0, 19537.0, 19550.0, 19560.0, 19539.0, 19562.0, 19517.0, 19545.0, 19569.0, 19559.0]
    },
    "slices": {}
  },
  "NumberOfVolumes": 192
}