{
  "AcquisitionMatrixPE": 104,
  "AcquisitionNumber": 1,
  "AcquisitionTime": "11:39:20.030000",
  "BandwidthPerPixelPhaseEncode": 16.578,
  "BaseResolution": 104,
  "BodyPartExamined": "BRAIN",
  "ConsistencyInfo": "N4_VE11C_LATEST_20160120",
  "ConversionSoftware": "dcm2niix",
  "ConversionSoftwareVersion": "v1.0.20190902",
  "DerivedVendorReportedEchoSpacing": 0.000580009,
  "DeviceSerialNumber": "166018",
  "DwellTime": 2.1e-06,
  "EchoTime": 0.037,
  "EchoTrainLength": 104,
  "EffectiveEchoSpacing": 0.000580009,
  "FlipAngle": 68,
  "ImageComments": "Unaliased_MB6_PE3_LB",
  "ImageOrientationPatientDICOM": [0.999537, 0.0119348, 0.0279765, -0.00575695, 0.977409, -0.21128],
  "ImageType": [
    "ORIGINAL",
    "PRIMARY",
    "M",
    "MB",
    "ND",
    "MOSAIC"
],
  "ImagingFrequency": 123.191,
  "InPlanePhaseEncodingDirectionDICOM": "COL",
  "InstitutionAddress": "Washington_Place_6_NYC_NYC_US_10003",
  "InstitutionName": "NYU_Center_for_Brain_Imaging",
  "InstitutionalDepartmentName": "Department",
  "MRAcquisitionType": "2D",
  "MagneticFieldStrength": 3,
  "Manufacturer": "Siemens",
  "ManufacturersModelName": "Prisma",
  "Modality": "MR",
  "MultibandAccelerationFactor": 6,
  "PartialFourier": 1,
  "PatientPosition": "HFS",
  "PercentPhaseFOV": 100,
  "PhaseEncodingDirection": "j",
  "PhaseEncodingSteps": 104,
  "PhaseResolution": 1,
  "PixelBandwidth": 2290,
  "ProcedureStepDescription": "Investigators_Winawer",
  "ProtocolName": "cmrr_mbepi_s6_2mm_66sl_PA_task-prf",
  "PulseSequenceDetails": "%CustomerSeq%_cmrr_mbep2d_bold",
  "ReceiveCoilActiveElements": "HC1-7",
  "ReceiveCoilName": "HeadNeck_64",
  "ReconMatrixPE": 104,
  "RepetitionTime": 1,
  "SAR": 0.0693344,
  "ScanOptions": "FS",
  "ScanningSequence": "EP",
  "SequenceName": "epfid2d1_104",
  "SequenceVariant": "SK_SS",
  "SeriesDescription": "cmrr_mbepi_s6_2mm_66sl_PA_task-prf",
  "SeriesNumber": 12,
  "ShimSetting": [260, -12599, -8432, 374, -73, -1, -69, 5],
  "SliceThickness": 2,
  "SliceTiming": [0, 0.535, 0.09, 0.6225, 0.1775, 0.7125, 0.2675, 0.8025, 0.3575, 0.89, 0.445, 0, 0.535, 0.09, 0.6225, 0.1775, 0.7125, 0.2675, 0.8025, 0.3575, 0.89, 0.445, 0, 0.535, 0.09, 0.6225, 0.1775, 0.7125, 0.2675, 0.8025, 0.3575, 0.89, 0.445, 0, 0.535, 0.09, 0.6225, 0.1775, 0.7125, 0.2675, 0.8025, 0.3575, 0.89, 0.445, 0, 0.535, 0.09, 0.6225, 0.1775, 0.7125, 0.2675, 0.8025, 0.3575, 0.89, 0.445, 0, 0.535, 0.09, 0.6225, 0.1775, 0.7125, 0.2675, 0.8025, 0.3575, 0.89, 0.445],
  "SoftwareVersions": "syngo_MR_E11",
  "SpacingBetweenSlices": 2,
  "StationName": "AWP166018",
  "TaskName": "prf",
  "TotalReadoutTime": 0.0597409,
  "TxRefAmp": 249.54,
  "WipMemBlock": "7da98d21-a94a-4374-a968-e3481dc33358||Sequence: R016 ve11c/master r/8780670; Nov 27 2017 15:05:12 by eja",
  "dcmmeta_affine": [
    [-1.9990746974945068, -0.011513893492519855, 0.05973207205533981, 106.42056274414062],
    [-0.023869547992944717, 1.954817295074463, -0.4220421314239502, -71.32170867919922],
    [0.05595296993851662, 0.4225597679615021, 1.9540503025054932, -84.3438949584961],
    [0.0, 0.0, 0.0, 1.0]
],
  "dcmmeta_reorient_transform": [
    [0.0, -1.0, 0.0, 103.0],
    [1.0, 0.0, 0.0, 0.0],
    [0.0, 0.0, 1.0, 0.0],
    [0.0, 0.0, 0.0, 1.0]
],
  "dcmmeta_shape": [104, 104, 66, 192],
  "dcmmeta_slice_dim": 2,
  "dcmmeta_version": 0.6,
  "global": {
    "const": {
      "AccessionNumber": "k2dxvqw6",
      "AcquisitionMatrix": [104, 0, 0, 104],
      "AngioFlag": "N",
      "BitsAllocated": 16,
      "BitsStored": 16,
      "BodyPartExamined": "BRAIN",
      "Columns": 936,
      "EchoNumbers": 1,
      "EchoTime": 37.0,
      "EchoTrainLength": 104,
      "FlipAngle": 68.0,
      "HighBit": 15,
      "ImageOrientationPatient": [0.99953733169658, 0.01193477430348, 0.02797648489712, -0.0057569468846, 0.97740865078441, -0.2112798782051],
      "ImagePositionPatient": [-932.05991396374, -953.15820306915, 111.6881832591],
      "ImageType": [
        "ORIGINAL",
        "PRIMARY",
        "M",
        "MB",
        "ND",
        "MOSAIC"
],
      "ImagedNucleus": "1H",
      "ImagingFrequency": 123.190765,
      "InPlanePhaseEncodingDirection": "COL",
      "MRAcquisitionType": "2D",
      "MagneticFieldStrength": 3.0,
      "Manufacturer": "SIEMENS",
      "ManufacturerModelName": "Prisma",
      "Modality": "MR",
      "NumberOfAverages": 1.0,
      "NumberOfPhaseEncodingSteps": 104,
      "PercentPhaseFieldOfView": 100.0,
      "PercentSampling": 100.0,
      "PerformedProcedureStepStartTime": "112402.648000",
      "PhotometricInterpretation": "MONOCHROME2",
      "PixelBandwidth": 2290.0,
      "PixelRepresentation": 0,
      "PixelSpacing": [2.0, 2.0],
      "ProtocolName": "cmrr_mbepi_s6_2mm_66sl_PA_task-prf",
      "RepetitionTime": 1000.0,
      "Rows": 936,
      "SAR": 0.06933443860276,
      "SamplesPerPixel": 1,
      "ScanOptions": "FS",
      "ScanningSequence": "EP",
      "SequenceName": "epfid2d1_104",
      "SequenceVariant": [
        "SK",
        "SS"
],
      "SeriesDescription": "cmrr_mbepi_s6_2mm_66sl_PA_task-prf",
      "SeriesNumber": 12,
      "SeriesTime": "114035.369000",
      "SliceLocation": -64.177362474653,
      "SliceThickness": 2.0,
      "SmallestImagePixelValue": 0,
      "SoftwareVersions": "syngo MR E11",
      "SpacingBetweenSlices": 2.0000000428902,
      "SpecificCharacterSet": "ISO_IR 100",
      "StudyID": "1",
      "StudyTime": "112402.582000",
      "TransmitCoilName": "Body",
      "VariableFlipAngleFlag": "N",
      "WindowCenterWidthExplanation": "Algo1",
      "dBdt": 0.0},
    "slices": {}
  },
  "time": {
    "samples": {
      "AcquisitionNumber": [1, 2, 3, 4, 5, 6, 7, 8, 9, 10, 11, 12, 13, 14, 15, 16, 17, 18, 19, 20, 21, 22, 23, 24, 25, 26, 27, 28, 29, 30, 31, 32, 33, 34, 35, 36, 37, 38, 39, 40, 41, 42, 43, 44, 45, 46, 47, 48, 49, 50, 51, 52, 53, 54, 55, 56, 57, 58, 59, 60, 61, 62, 63, 64, 65, 66, 67, 68, 69, 70, 71, 72, 73, 74, 75, 76, 77, 78, 79, 80, 81, 82, 83, 84, 85, 86, 87, 88, 89, 90, 91, 92, 93, 94, 95, 96, 97, 98, 99, 100, 101, 102, 103, 104, 105, 106, 107, 108, 109, 110, 111, 112, 113, 114, 115, 116, 117, 118, 119, 120, 121, 122, 123, 124, 125, 126, 127, 128, 129, 130, 131, 132, 133, 134, 135, 136, 137, 138, 139, 140, 141, 142, 143, 144, 145, 146, 147, 148, 149, 150, 151, 152, 153, 154, 155, 156, 157, 158, 159, 160, 161, 162, 163, 164, 165, 166, 167, 168, 169, 170, 171, 172, 173, 174, 175, 176, 177, 178, 179, 180, 181, 182, 183, 184, 185, 186, 187, 188, 189, 190, 191, 192],
      "AcquisitionTime": ["113920.030000", "113921.030000", "113922.030000", "113923.030000", "113924.030000", "113925.030000", "113926.030000", "113927.030000", "113928.030000", "113929.030000", "113930.030000", "113931.030000", "113932.030000", "113933.030000", "113934.030000", "113935.030000", "113936.030000", "113937.030000", "113938.030000", "113939.030000", "113940.030000", "113941.030000", "113942.030000", "113943.030000", "113944.030000", "113945.030000", "113946.030000", "113947.030000", "113948.030000", "113949.030000", "113950.030000", "113951.030000", "113952.030000", "113953.030000", "113954.030000", "113955.030000", "113956.030000", "113957.030000", "113958.030000", "113959.030000", "114000.030000", "114001.030000", "114002.030000", "114003.030000", "114004.030000", "114005.030000", "114006.030000", "114007.030000", "114008.030000", "114009.030000", "114010.030000", "114011.030000", "114012.030000", "114013.030000", "114014.030000", "114015.030000", "114016.030000", "114017.030000", "114018.030000", "114019.030000", "114020.030000", "114021.030000", "114022.030000", "114023.030000", "114024.030000", "114025.030000", "114026.030000", "114027.030000", "114028.030000", "114029.030000", "114030.030000", "114031.030000", "114032.030000", "114033.030000", "114034.030000", "114035.030000", "114036.030000", "114037.030000", "114038.030000", "114039.030000", "114040.030000", "114041.030000", "114042.030000", "114043.030000", "114044.030000", "114045.030000", "114046.030000", "114047.030000", "114048.030000", "114049.030000", "114050.030000", "114051.030000", "114052.030000", "114053.030000", "114054.030000", "114055.030000", "114056.030000", "114057.030000", "114058.030000", "114059.030000", "114100.030000", "114101.030000", "114102.030000", "114103.030000", "114104.030000", "114105.030000", "114106.030000", "114107.030000", "114108.030000", "114109.030000", "114110.030000", "114111.030000", "114112.030000", "114113.030000", "114114.030000", "114115.030000", "114116.030000", "114117.030000", "114118.030000", "114119.030000", "114120.030000", "114121.030000", "114122.030000", "114123.030000", "114124.030000", "114125.030000", "114126.030000", "114127.030000", "114128.030000", "114129.030000", "114130.030000", "114131.030000", "114132.030000", "114133.030000", "114134.030000", "114135.030000", "114136.030000", "114137.030000", "114138.030000", "114139.030000", "114140.030000", "114141.030000", "114142.030000", "114143.030000", "114144.030000", "114145.030000", "114146.030000", "114147.030000", "114148.030000", "114149.030000", "114150.030000", "114151.030000", "114152.030000", "114153.030000", "114154.030000", "114155.030000", "114156.030000", "114157.030000", "114158.030000", "114159.030000", "114200.030000", "114201.030000", "114202.030000", "114203.030000", "114204.030000", "114205.030000", "114206.030000", "114207.030000", "114208.030000", "114209.030000", "114210.030000", "114211.030000", "114212.030000", "114213.030000", "114214.030000", "114215.030000", "114216.030000", "114217.030000", "114218.030000", "114219.030000", "114220.030000", "114221.030000", "114222.030000", "114223.030000", "114224.030000", "114225.030000", "114226.030000", "114227.030000", "114228.030000", "114229.030000", "114230.030000", "114231.030000"],
      "ContentTime": ["114035.371000", "114035.375000", "114035.378000", "114035.380000", "114035.383000", "114035.386000", "114035.389000", "114035.392000", "114035.395000", "114035.398000", "114035.401000", "114035.407000", "114035.410000", "114035.412000", "114035.415000", "114035.418000", "114035.421000", "114035.424000", "114035.427000", "114035.430000", "114035.432000", "114035.435000", "114035.438000", "114035.441000", "114035.444000", "114035.447000", "114035.450000", "114035.453000", "114035.457000", "114035.460000", "114035.463000", "114035.466000", "114035.469000", "114035.472000", "114035.474000", "114035.477000", "114055.343000", "114055.346000", "114055.349000", "114055.352000", "114055.355000", "114055.358000", "114055.360000", "114055.363000", "114055.366000", "114055.369000", "114055.372000", "114055.375000", "114055.378000", "114055.381000", "114055.384000", "114055.386000", "114055.389000", "114055.392000", "114055.395000", "114055.398000", "114055.401000", "114055.404000", "114055.406000", "114055.409000", "114055.412000", "114055.425000", "114055.428000", "114055.431000", "114115.343000", "114115.346000", "114115.349000", "114115.352000", "114115.354000", "114115.369000", "114115.372000", "114115.385000", "114115.388000", "114115.391000", "114115.394000", "114115.397000", "114115.399000", "114115.402000", "114115.405000", "114115.408000", "114115.411000", "114115.414000", "114115.417000", "114115.419000", "114115.422000", "114115.425000", "114115.428000", "114115.431000", "114115.434000", "114115.437000", "114115.440000", "114115.443000", "114135.343000", "114135.346000", "114135.349000", "114135.352000", "114135.355000", "114135.358000", "114135.360000", "114135.363000", "114135.366000", "114135.369000", "114135.372000", "114135.375000", "114135.377000", "114135.380000", "114135.383000", "114135.391000", "114135.394000", "114135.397000", "114135.400000", "114135.403000", "114135.406000", "114135.409000", "114135.411000", "114135.414000", "114135.417000", "114135.420000", "114135.423000", "114135.426000", "114155.344000", "114155.348000", "114155.351000", "114155.354000", "114155.357000", "114155.360000", "114155.363000", "114155.366000", "114155.369000", "114155.372000", "114155.375000", "114155.378000", "114155.381000", "114155.383000", "114155.386000", "114155.389000", "114155.392000", "114155.395000", "114155.398000", "114155.401000", "114155.404000", "114155.406000", "114155.409000", "114155.412000", "114155.415000", "114155.418000", "114155.421000", "114155.424000", "114215.343000", "114215.346000", "114215.349000", "114215.352000", "114215.355000", "114215.358000", "114215.360000", "114215.363000", "114215.366000", "114215.377000", "114215.379000", "114215.382000", "114215.385000", "114215.388000", "114215.391000", "114215.394000", "114215.397000", "114215.400000", "114215.402000", "114215.405000", "114215.408000", "114215.411000", "114215.414000", "114215.417000", "114215.420000", "114215.423000", "114232.851000", "114232.854000", "114232.857000", "114232.860000", "114232.863000", "114232.866000", "114232.869000", "114232.872000", "114232.874000", "114232.877000", "114232.880000", "114232.883000", "114232.886000", "114232.889000", "114232.892000", "114232.894000", "114232.897000", "114232.900000"],
      "InstanceCreationTime": ["114035.371000", "114035.375000", "114035.378000", "114035.380000", "114035.383000", "114035.386000", "114035.389000", "114035.392000", "114035.395000", "114035.398000", "114035.401000", "114035.407000", "114035.410000", "114035.412000", "114035.415000", "114035.418000", "114035.421000", "114035.424000", "114035.427000", "114035.430000", "114035.432000", "114035.435000", "114035.438000", "114035.441000", "114035.444000", "114035.447000", "114035.450000", "114035.453000", "114035.457000", "114035.460000", "114035.463000", "114035.466000", "114035.469000", "114035.472000", "114035.474000", "114035.477000", "114055.343000", "114055.346000", "114055.349000", "114055.352000", "114055.355000", "114055.358000", "114055.360000", "114055.363000", "114055.366000", "114055.369000", "114055.372000", "114055.375000", "114055.378000", "114055.381000", "114055.384000", "114055.386000", "114055.389000", "114055.392000", "114055.395000", "114055.398000", "114055.401000", "114055.404000", "114055.406000", "114055.409000", "114055.412000", "114055.425000", "114055.428000", "114055.431000", "114115.343000", "114115.346000", "114115.349000", "114115.352000", "114115.354000", "114115.369000", "114115.372000", "114115.385000", "114115.388000", "114115.391000", "114115.394000", "114115.397000", "114115.399000", "114115.402000", "114115.405000", "114115.408000", "114115.411000", "114115.414000", "114115.417000", "114115.419000", "114115.422000", "114115.425000", "114115.428000", "114115.431000", "114115.434000", "114115.437000", "114115.440000", "114115.443000", "114135.343000", "114135.346000", "114135.349000", "114135.352000", "114135.355000", "114135.358000", "114135.360000", "114135.363000", "114135.366000", "114135.369000", "114135.372000", "114135.375000", "114135.377000", "114135.380000", "114135.383000", "114135.391000", "114135.394000", "114135.397000", "114135.400000", "114135.403000", "114135.406000", "114135.409000", "114135.411000", "114135.414000", "114135.417000", "114135.420000", "114135.423000", "114135.426000", "114155.344000", "114155.348000", "114155.351000", "114155.354000", "114155.357000", "114155.360000", "114155.363000", "114155.366000", "114155.369000", "114155.372000", "114155.375000", "114155.378000", "114155.381000", "114155.383000", "114155.386000", "114155.389000", "114155.392000", "114155.395000", "114155.398000", "114155.401000", "114155.404000", "114155.406000", "114155.409000", "114155.412000", "114155.415000", "114155.418000", "114155.421000", "114155.424000", "114215.343000", "114215.346000", "114215.349000", "114215.352000", "114215.355000", "114215.358000", "114215.360000", "114215.363000", "114215.366000", "114215.377000", "114215.379000", "114215.382000", "114215.385000", "114215.388000", "114215.391000", "114215.394000", "114215.397000", "114215.400000", "114215.402000", "114215.405000", "114215.408000", "114215.411000", "114215.414000", "114215.417000", "114215.420000", "114215.423000", "114232.851000", "114232.854000", "114232.857000", "114232.860000", "114232.863000", "114232.866000", "114232.869000", "114232.872000", "114232.874000", "114232.877000", "114232.880000", "114232.883000", "114232.886000", "114232.889000", "114232.892000", "114232.894000", "114232.897000", "114232.900000"],
      "InstanceNumber": [1, 2, 3, 4, 5, 6, 7, 8, 9, 10, 11, 12, 13, 14, 15, 16, 17, 18, 19, 20, 21, 22, 23, 24, 25, 26, 27, 28, 29, 30, 31, 32, 33, 34, 35, 36, 37, 38, 39, 40, 41, 42, 43, 44, 45, 46, 47, 48, 49, 50, 51, 52, 53, 54, 55, 56, 57, 58, 59, 60, 61, 62, 63, 64, 65, 66, 67, 68, 69, 70, 71, 72, 73, 74, 75, 76, 77, 78, 79, 80, 81, 82, 83, 84, 85, 86, 87, 88, 89, 90, 91, 92, 93, 94, 95, 96, 97, 98, 99, 100, 101, 102, 103, 104, 105, 106, 107, 108, 109, 110, 111, 112, 113, 114, 115, 116, 117, 118, 119, 120, 121, 122, 123, 124, 125, 126, 127, 128, 129, 130, 131, 132, 133, 134, 135, 136, 137, 138, 139, 140, 141, 142, 143, 144, 145, 146, 147, 148, 149, 150, 151, 152, 153, 154, 155, 156, 157, 158, 159, 160, 161, 162, 163, 164, 165, 166, 167, 168, 169, 170, 171, 172, 173, 174, 175, 176, 177, 178, 179, 180, 181, 182, 183, 184, 185, 186, 187, 188, 189, 190, 191, 192],
      "LargestImagePixelValue": [36167, 35185, 33869, 33741, 33044, 33640, 33495, 33250, 33544, 33530, 33014, 34087, 32861, 33569, 33795, 33131, 33301, 33789, 33568, 33279, 34133, 32959, 33617, 33063, 33809, 33673, 33256, 33323, 33626, 33319, 33907, 32724, 33694, 33460, 33127, 33527, 33374, 33597, 33320, 33572, 33311, 33536, 33373, 32794, 33918, 33271, 33743, 33257, 33708, 32730, 33434, 33209, 33169, 33205, 32510, 33731, 33214, 33418, 33028, 32765, 33564, 33090, 33131, 33122, 33092, 33126, 33154, 33606, 32941, 33213, 33182, 33210, 33112, 33300, 32692, 33518, 33775, 33400, 33606, 33841, 33022, 33851, 33935, 32858, 33698, 32702, 33505, 32732, 33936, 33304, 33062, 33668, 33021, 33787, 33322, 33452, 32967, 32355, 33141, 33331, 33271, 33193, 32816, 33279, 32860, 33397, 32939, 32939, 32696, 33099, 32882, 32504, 33560, 32990, 32643, 33012, 32300, 33679, 32159, 32963, 32414, 32839, 32504, 32680, 32746, 32122, 32030, 32773, 33398, 32570, 31884, 32540, 31918, 34919, 32306, 31443, 31714, 31181, 32619, 32655, 31645, 31828, 31008, 31375, 33465, 32730, 31581, 30990, 31305, 35936, 33337, 31534, 31035, 31011, 31170, 32848, 31464, 30901, 31722, 32326, 31089, 30905, 31533, 32530, 31403, 31281, 31468, 31235, 31768, 31574, 31172, 30972, 35113, 31954, 30967, 31335, 32707, 31023, 31012, 31147, 32247, 31549, 30938, 31647, 32184, 31926, 30919, 31545, 32225, 31070, 30952, 31474],
      "WindowCenter": [9445.0, 9421.0, 9401.0, 9393.0, 9379.0, 9385.0, 9386.0, 9378.0, 9385.0, 9383.0, 9370.0, 9383.0, 9369.0, 9375.0, 9383.0, 9377.0, 9378.0, 9385.0, 9384.0, 9378.0, 9391.0, 9371.0, 9384.0, 9371.0, 9383.0, 9391.0, 9391.0, 9393.0, 9400.0, 9396.0, 9392.0, 9371.0, 9374.0, 9364.0, 9347.0, 9344.0, 9337.0, 9352.0, 9347.0, 9364.0, 9376.0, 9386.0, 9380.0, 9371.0, 9374.0, 9364.0, 9353.0, 9338.0, 9341.0, 9321.0, 9334.0, 9335.0, 9342.0, 9336.0, 9337.0, 9350.0, 9344.0, 9345.0, 9337.0, 9338.0, 9350.0, 9344.0, 9345.0, 9347.0, 9344.0, 9345.0, 9346.0, 9351.0, 9343.0, 9346.0, 9348.0, 9348.0, 9342.0, 9347.0, 9341.0, 9336.0, 9361.0, 9358.0, 9368.0, 9374.0, 9351.0, 9362.0, 9354.0, 9348.0, 9346.0, 9342.0, 9354.0, 9349.0, 9363.0, 9364.0, 9357.0, 9356.0, 9350.0, 9362.0, 9364.0, 9365.0, 9358.0, 9344.0, 9355.0, 9361.0, 9356.0, 9356.0, 9349.0, 9352.0, 9339.0, 9344.0, 9338.0, 9338.0, 9331.0, 9332.0, 9339.0, 9339.0, 9353.0, 9350.0, 9350.0, 9358.0, 9353.0, 9363.0, 9346.0, 9350.0, 9336.0, 9348.0, 9333.0, 9332.0, 9332.0, 9324.0, 9323.0, 9331.0, 9338.0, 9339.0, 9335.0, 9339.0, 9326.0, 9363.0, 9332.0, 9321.0, 9328.0, 9322.0, 9342.0, 9341.0, 9329.0, 9330.0, 9322.0, 9323.0, 9355.0, 9333.0, 9318.0, 9313.0, 9312.0, 9361.0, 9338.0, 9321.0, 9309.0, 9315.0, 9316.0, 9342.0, 9325.0, 9316.0, 9322.0, 9335.0, 9318.0, 9317.0, 9331.0, 9344.0, 9331.0, 9331.0, 9329.0, 9328.0, 9327.0, 9319.0, 9314.0, 9312.0, 9364.0, 9334.0, 9333.0, 9338.0, 9351.0, 9333.0, 9323.0, 9317.0, 9334.0, 9323.0, 9314.0, 9321.0, 9326.0, 9321.0, 9304.0, 9308.0, 9305.0, 9287.0, 9291.0, 9292.0],
      "WindowWidth": [19970.0, 19919.0, 19882.0, 19867.0, 19841.0, 19851.0, 19855.0, 19839.0, 19852.0, 19844.0, 19824.0, 19845.0, 19819.0, 19830.0, 19847.0, 19837.0, 19841.0, 19852.0, 19851.0, 19840.0, 19861.0, 19826.0, 19848.0, 19827.0, 19845.0, 19861.0, 19861.0, 19867.0, 19879.0, 19872.0, 19863.0, 19821.0, 19822.0, 19798.0, 19765.0, 19756.0, 19744.0, 19774.0, 19770.0, 19807.0, 19833.0, 19855.0, 19844.0, 19823.0, 19824.0, 19797.0, 19771.0, 19741.0, 19745.0, 19708.0, 19733.0, 19737.0, 19750.0, 19741.0, 19744.0, 19766.0, 19755.0, 19757.0, 19743.0, 19745.0, 19766.0, 19758.0, 19759.0, 19765.0, 19760.0, 19763.0, 19767.0, 19777.0, 19766.0, 19769.0, 19773.0, 19772.0, 19761.0, 19767.0, 19758.0, 19741.0, 19793.0, 19794.0, 19810.0, 19820.0, 19775.0, 19792.0, 19776.0, 19768.0, 19762.0, 19758.0, 19780.0, 19774.0, 19798.0, 19803.0, 19791.0, 19787.0, 19775.0, 19796.0, 19800.0, 19804.0, 19788.0, 19763.0, 19779.0, 19790.0, 19783.0, 19784.0, 19770.0, 19774.0, 19750.0, 19758.0, 19747.0, 19747.0, 19736.0, 19738.0, 19753.0, 19754.0, 19777.0, 19779.0, 19778.0, 19794.0, 19788.0, 19800.0, 19771.0, 19774.0, 19748.0, 19769.0, 19740.0, 19736.0, 19737.0, 19721.0, 19719.0, 19733.0, 19745.0, 19748.0, 19745.0, 19747.0, 19727.0, 19785.0, 19738.0, 19721.0, 19734.0, 19727.0, 19759.0, 19756.0, 19737.0, 19739.0, 19723.0, 19726.0, 19777.0, 19736.0, 19707.0, 19701.0, 19699.0, 19778.0, 19740.0, 19718.0, 19698.0, 19711.0, 19715.0, 19758.0, 19732.0, 19712.0, 19724.0, 19745.0, 19720.0, 19718.0, 19742.0, 19763.0, 19739.0, 19738.0, 19730.0, 19726.0, 19724.0, 19707.0, 19700.0, 19697.0, 19784.0, 19739.0, 19742.0, 19750.0, 19771.0, 19742.0, 19722.0, 19712.0, 19737.0, 19721.0, 19705.0, 19716.0, 19723.0, 19714.0, 19677.0, 19682.0, 19670.0, 19642.0, 19647.0, 19648.0]
    },
    "slices": {}
  },
  "NumberOfVolumes": 192
}