{
  "AcquisitionMatrixPE": 104,
  "AcquisitionNumber": 1,
  "AcquisitionTime": "16:04:7.470000",
  "BandwidthPerPixelPhaseEncode": 16.578,
  "BaseResolution": 104,
  "BodyPartExamined": "BRAIN",
  "ConsistencyInfo": "N4_VE11C_LATEST_20160120",
  "ConversionSoftware": "dcm2niix",
  "ConversionSoftwareVersion": "v1.0.20190902",
  "DerivedVendorReportedEchoSpacing": 0.000580009,
  "DeviceSerialNumber": "166018",
  "DwellTime": 2.1e-06,
  "EchoTime": 0.037,
  "EchoTrainLength": 104,
  "EffectiveEchoSpacing": 0.000580009,
  "FlipAngle": 68,
  "ImageComments": "Unaliased_MB6_PE3_LB",
  "ImageOrientationPatientDICOM": [0.998521, -0.0247588, 0.048393, 0.0415013, 0.922188, -0.38451],
  "ImageType": [
    "ORIGINAL",
    "PRIMARY",
    "M",
    "MB",
    "ND",
    "MOSAIC"
],
  "ImagingFrequency": 123.191,
  "InPlanePhaseEncodingDirectionDICOM": "COL",
  "InstitutionAddress": "Washington_Place_6_NYC_NYC_US_10003",
  "InstitutionName": "NYU_-_CBI",
  "InstitutionalDepartmentName": "Department",
  "MRAcquisitionType": "2D",
  "MagneticFieldStrength": 3,
  "Manufacturer": "Siemens",
  "ManufacturersModelName": "Prisma",
  "Modality": "MR",
  "MultibandAccelerationFactor": 6,
  "PartialFourier": 1,
  "PatientPosition": "HFS",
  "PercentPhaseFOV": 100,
  "PhaseEncodingDirection": "j",
  "PhaseEncodingSteps": 104,
  "PhaseResolution": 1,
  "PixelBandwidth": 2290,
  "ProcedureStepDescription": "Investigators_Winawer",
  "ProtocolName": "cmrr_mbepi_s6_2mm_66sl_PA_TR1.0",
  "PulseSequenceDetails": "%CustomerSeq%_cmrr_mbep2d_bold",
  "ReceiveCoilActiveElements": "HC1-7",
  "ReceiveCoilName": "HeadNeck_64",
  "ReconMatrixPE": 104,
  "RepetitionTime": 1,
  "SAR": 0.065334,
  "ScanOptions": "FS",
  "ScanningSequence": "EP",
  "SequenceName": "epfid2d1_104",
  "SequenceVariant": "SK_SS",
  "SeriesDescription": "cmrr_mbepi_s6_2mm_66sl_PA_TR1.0",
  "SeriesNumber": 18,
  "ShimSetting": [261, -12580, -8459, 482, 6, -143, -82, -33],
  "SliceThickness": 2,
  "SliceTiming": [0, 0.535, 0.09, 0.625, 0.18, 0.7125, 0.2675, 0.8025, 0.3575, 0.8925, 0.4475, 0, 0.535, 0.09, 0.625, 0.18, 0.7125, 0.2675, 0.8025, 0.3575, 0.8925, 0.4475, 0, 0.535, 0.09, 0.625, 0.18, 0.7125, 0.2675, 0.8025, 0.3575, 0.8925, 0.4475, 0, 0.535, 0.09, 0.625, 0.18, 0.7125, 0.2675, 0.8025, 0.3575, 0.8925, 0.4475, 0, 0.535, 0.09, 0.625, 0.18, 0.7125, 0.2675, 0.8025, 0.3575, 0.8925, 0.4475, 0, 0.535, 0.09, 0.625, 0.18, 0.7125, 0.2675, 0.8025, 0.3575, 0.8925, 0.4475],
  "SoftwareVersions": "syngo_MR_E11",
  "SpacingBetweenSlices": 2,
  "StationName": "AWP166018",
  "TaskName": "prf",
  "TotalReadoutTime": 0.0597409,
  "TxRefAmp": 234.373,
  "WipMemBlock": "f00b4274-79a4-428b-adfe-eeddc02bcf75||Sequence: ve11c/master r/ab69a6c; Apr 19 2017 09:47:47 by eja",
  "dcmmeta_affine": [
    [-1.9970428943634033, 0.0830025002360344, 0.0702148973941803, 110.34679412841797],
    [0.049517672508955, 1.8443751335144043, -0.7718992829322815, -64.71625518798828],
    [0.09678608924150467, 0.7690195441246033, 1.843703269958496, -96.47901916503906],
    [0.0, 0.0, 0.0, 1.0]
],
  "dcmmeta_reorient_transform": [
    [0.0, -1.0, 0.0, 103.0],
    [1.0, 0.0, 0.0, 0.0],
    [0.0, 0.0, 1.0, 0.0],
    [0.0, 0.0, 0.0, 1.0]
],
  "dcmmeta_shape": [104, 104, 66, 192],
  "dcmmeta_slice_dim": 2,
  "dcmmeta_version": 0.6,
  "global": {
    "const": {
      "AccessionNumber": "j6wepnxe",
      "AcquisitionMatrix": [104, 0, 0, 104],
      "AngioFlag": "N",
      "BitsAllocated": 16,
      "BitsStored": 16,
      "BodyPartExamined": "BRAIN",
      "Columns": 936,
      "EchoNumbers": 1,
      "EchoTime": 37.0,
      "EchoTrainLength": 104,
      "FlipAngle": 68.0,
      "HighBit": 15,
      "ImageOrientationPatient": [0.99852146361479, -0.0247588370637, 0.04839304379581, 0.04150125035507, 0.9221875559071, -0.3845097631388],
      "ImagePositionPatient": [-984.19494958396, -871.91507572875, 262.37910260703],
      "ImageType": [
        "ORIGINAL",
        "PRIMARY",
        "M",
        "MB",
        "ND",
        "MOSAIC"
],
      "ImagedNucleus": "1H",
      "ImagingFrequency": 123.191345,
      "InPlanePhaseEncodingDirection": "COL",
      "MRAcquisitionType": "2D",
      "MagneticFieldStrength": 3.0,
      "Manufacturer": "SIEMENS",
      "ManufacturerModelName": "Prisma",
      "Modality": "MR",
      "NumberOfAverages": 1.0,
      "NumberOfPhaseEncodingSteps": 104,
      "PercentPhaseFieldOfView": 100.0,
      "PercentSampling": 100.0,
      "PerformedProcedureStepStartTime": "154117.736000",
      "PhotometricInterpretation": "MONOCHROME2",
      "PixelBandwidth": 2290.0,
      "PixelRepresentation": 0,
      "PixelSpacing": [2.0, 2.0],
      "ProtocolName": "cmrr_mbepi_s6_2mm_66sl_PA_TR1.0",
      "RepetitionTime": 1000.0,
      "Rows": 936,
      "SAR": 0.06533400942532,
      "SamplesPerPixel": 1,
      "ScanOptions": "FS",
      "ScanningSequence": "EP",
      "SequenceName": "epfid2d1_104",
      "SequenceVariant": [
        "SK",
        "SS"
],
      "SeriesDescription": "cmrr_mbepi_s6_2mm_66sl_PA_TR1.0",
      "SeriesNumber": 18,
      "SeriesTime": "160529.245000",
      "SliceLocation": -60.088128683745,
      "SliceThickness": 2.0,
      "SmallestImagePixelValue": 0,
      "SoftwareVersions": "syngo MR E11",
      "SpacingBetweenSlices": 2.0000000486852,
      "SpecificCharacterSet": "ISO_IR 100",
      "StudyID": "1",
      "StudyTime": "154117.674000",
      "TransmitCoilName": "Body",
      "VariableFlipAngleFlag": "N",
      "WindowCenterWidthExplanation": "Algo1",
      "dBdt": 0.0},
    "slices": {}
  },
  "time": {
    "samples": {
      "AcquisitionNumber": [1, 2, 3, 4, 5, 6, 7, 8, 9, 10, 11, 12, 13, 14, 15, 16, 17, 18, 19, 20, 21, 22, 23, 24, 25, 26, 27, 28, 29, 30, 31, 32, 33, 34, 35, 36, 37, 38, 39, 40, 41, 42, 43, 44, 45, 46, 47, 48, 49, 50, 51, 52, 53, 54, 55, 56, 57, 58, 59, 60, 61, 62, 63, 64, 65, 66, 67, 68, 69, 70, 71, 72, 73, 74, 75, 76, 77, 78, 79, 80, 81, 82, 83, 84, 85, 86, 87, 88, 89, 90, 91, 92, 93, 94, 95, 96, 97, 98, 99, 100, 101, 102, 103, 104, 105, 106, 107, 108, 109, 110, 111, 112, 113, 114, 115, 116, 117, 118, 119, 120, 121, 122, 123, 124, 125, 126, 127, 128, 129, 130, 131, 132, 133, 134, 135, 136, 137, 138, 139, 140, 141, 142, 143, 144, 145, 146, 147, 148, 149, 150, 151, 152, 153, 154, 155, 156, 157, 158, 159, 160, 161, 162, 163, 164, 165, 166, 167, 168, 169, 170, 171, 172, 173, 174, 175, 176, 177, 178, 179, 180, 181, 182, 183, 184, 185, 186, 187, 188, 189, 190, 191, 192],
      "AcquisitionTime": ["160407.470000", "160408.470000", "160409.470000", "160410.470000", "160411.470000", "160412.470000", "160413.470000", "160414.470000", "160415.470000", "160416.470000", "160417.470000", "160418.470000", "160419.470000", "160420.470000", "160421.470000", "160422.470000", "160423.470000", "160424.470000", "160425.470000", "160426.470000", "160427.470000", "160428.470000", "160429.470000", "160430.470000", "160431.470000", "160432.470000", "160433.470000", "160434.470000", "160435.470000", "160436.470000", "160437.470000", "160438.470000", "160439.470000", "160440.470000", "160441.470000", "160442.470000", "160443.470000", "160444.470000", "160445.470000", "160446.470000", "160447.470000", "160448.470000", "160449.470000", "160450.470000", "160451.470000", "160452.470000", "160453.470000", "160454.470000", "160455.470000", "160456.470000", "160457.470000", "160458.470000", "160459.470000", "160500.470000", "160501.470000", "160502.470000", "160503.470000", "160504.470000", "160505.470000", "160506.470000", "160507.470000", "160508.470000", "160509.470000", "160510.470000", "160511.470000", "160512.470000", "160513.470000", "160514.470000", "160515.470000", "160516.470000", "160517.470000", "160518.470000", "160519.470000", "160520.470000", "160521.470000", "160522.470000", "160523.470000", "160524.470000", "160525.470000", "160526.470000", "160527.470000", "160528.470000", "160529.470000", "160530.470000", "160531.470000", "160532.470000", "160533.470000", "160534.470000", "160535.470000", "160536.470000", "160537.470000", "160538.470000", "160539.470000", "160540.470000", "160541.470000", "160542.470000", "160543.470000", "160544.470000", "160545.470000", "160546.470000", "160547.470000", "160548.470000", "160549.470000", "160550.470000", "160551.470000", "160552.470000", "160553.470000", "160554.470000", "160555.470000", "160556.470000", "160557.470000", "160558.470000", "160559.470000", "160600.470000", "160601.470000", "160602.470000", "160603.470000", "160604.470000", "160605.470000", "160606.470000", "160607.470000", "160608.470000", "160609.470000", "160610.470000", "160611.470000", "160612.470000", "160613.470000", "160614.470000", "160615.470000", "160616.470000", "160617.470000", "160618.470000", "160619.470000", "160620.470000", "160621.470000", "160622.470000", "160623.470000", "160624.470000", "160625.470000", "160626.470000", "160627.470000", "160628.470000", "160629.470000", "160630.470000", "160631.470000", "160632.470000", "160633.470000", "160634.470000", "160635.470000", "160636.470000", "160637.470000", "160638.470000", "160639.470000", "160640.470000", "160641.470000", "160642.470000", "160643.470000", "160644.470000", "160645.470000", "160646.470000", "160647.470000", "160648.470000", "160649.470000", "160650.470000", "160651.470000", "160652.470000", "160653.470000", "160654.470000", "160655.470000", "160656.470000", "160657.470000", "160658.470000", "160659.470000", "160700.470000", "160701.470000", "160702.470000", "160703.470000", "160704.470000", "160705.470000", "160706.470000", "160707.470000", "160708.470000", "160709.470000", "160710.470000", "160711.470000", "160712.470000", "160713.470000", "160714.470000", "160715.470000", "160716.470000", "160717.470000", "160718.470000"],
      "ContentTime": ["160529.247000", "160529.251000", "160529.254000", "160529.257000", "160529.260000", "160529.263000", "160529.270000", "160529.273000", "160529.276000", "160529.279000", "160529.282000", "160529.285000", "160529.289000", "160529.292000", "160529.295000", "160529.298000", "160529.301000", "160529.304000", "160529.307000", "160529.310000", "160529.313000", "160529.316000", "160529.328000", "160529.331000", "160529.334000", "160529.337000", "160529.340000", "160529.343000", "160529.346000", "160529.349000", "160529.352000", "160529.355000", "160529.358000", "160529.361000", "160529.364000", "160549.211000", "160549.214000", "160549.218000", "160549.224000", "160549.228000", "160549.231000", "160549.234000", "160549.237000", "160549.240000", "160549.243000", "160549.246000", "160549.249000", "160549.252000", "160549.255000", "160549.258000", "160549.261000", "160549.264000", "160549.267000", "160549.270000", "160549.273000", "160549.275000", "160549.278000", "160549.289000", "160549.292000", "160549.295000", "160549.298000", "160549.301000", "160549.304000", "160609.211000", "160609.214000", "160609.217000", "160609.220000", "160609.223000", "160609.226000", "160609.229000", "160609.232000", "160609.235000", "160609.238000", "160609.241000", "160609.244000", "160609.247000", "160609.254000", "160609.257000", "160609.260000", "160609.263000", "160609.266000", "160609.269000", "160609.272000", "160609.275000", "160609.278000", "160609.281000", "160609.284000", "160609.287000", "160609.290000", "160609.298000", "160609.301000", "160609.304000", "160629.211000", "160629.214000", "160629.217000", "160629.220000", "160629.248000", "160629.251000", "160629.254000", "160629.257000", "160629.260000", "160629.263000", "160629.266000", "160629.269000", "160629.272000", "160629.275000", "160629.278000", "160629.281000", "160629.284000", "160629.287000", "160629.290000", "160629.293000", "160629.296000", "160629.301000", "160629.305000", "160629.308000", "160629.311000", "160629.314000", "160629.317000", "160629.320000", "160649.211000", "160649.214000", "160649.217000", "160649.220000", "160649.223000", "160649.226000", "160649.229000", "160649.232000", "160649.235000", "160649.238000", "160649.241000", "160649.244000", "160649.247000", "160649.250000", "160649.253000", "160649.256000", "160649.259000", "160649.262000", "160649.265000", "160649.268000", "160649.271000", "160649.274000", "160649.277000", "160649.280000", "160649.283000", "160649.286000", "160649.289000", "160649.292000", "160709.211000", "160709.214000", "160709.217000", "160709.220000", "160709.223000", "160709.226000", "160709.229000", "160709.232000", "160709.235000", "160709.238000", "160709.241000", "160709.244000", "160709.247000", "160709.250000", "160709.253000", "160709.256000", "160709.259000", "160709.262000", "160709.265000", "160709.268000", "160709.271000", "160709.274000", "160709.277000", "160709.280000", "160709.283000", "160709.286000", "160709.289000", "160709.292000", "160720.171000", "160720.175000", "160720.178000", "160720.181000", "160720.184000", "160720.187000", "160720.190000", "160720.193000", "160720.196000", "160720.199000", "160720.202000", "160720.205000", "160720.208000", "160720.211000", "160720.214000", "160720.217000"],
      "InstanceCreationTime": ["160529.247000", "160529.251000", "160529.254000", "160529.257000", "160529.260000", "160529.263000", "160529.270000", "160529.273000", "160529.276000", "160529.279000", "160529.282000", "160529.285000", "160529.289000", "160529.292000", "160529.295000", "160529.298000", "160529.301000", "160529.304000", "160529.307000", "160529.310000", "160529.313000", "160529.316000", "160529.328000", "160529.331000", "160529.334000", "160529.337000", "160529.340000", "160529.343000", "160529.346000", "160529.349000", "160529.352000", "160529.355000", "160529.358000", "160529.361000", "160529.364000", "160549.211000", "160549.214000", "160549.218000", "160549.224000", "160549.228000", "160549.231000", "160549.234000", "160549.237000", "160549.240000", "160549.243000", "160549.246000", "160549.249000", "160549.252000", "160549.255000", "160549.258000", "160549.261000", "160549.264000", "160549.267000", "160549.270000", "160549.273000", "160549.275000", "160549.278000", "160549.289000", "160549.292000", "160549.295000", "160549.298000", "160549.301000", "160549.304000", "160609.211000", "160609.214000", "160609.217000", "160609.220000", "160609.223000", "160609.226000", "160609.229000", "160609.232000", "160609.235000", "160609.238000", "160609.241000", "160609.244000", "160609.247000", "160609.254000", "160609.257000", "160609.260000", "160609.263000", "160609.266000", "160609.269000", "160609.272000", "160609.275000", "160609.278000", "160609.281000", "160609.284000", "160609.287000", "160609.290000", "160609.298000", "160609.301000", "160609.304000", "160629.211000", "160629.214000", "160629.217000", "160629.220000", "160629.248000", "160629.251000", "160629.254000", "160629.257000", "160629.260000", "160629.263000", "160629.266000", "160629.269000", "160629.272000", "160629.275000", "160629.278000", "160629.281000", "160629.284000", "160629.287000", "160629.290000", "160629.293000", "160629.296000", "160629.301000", "160629.305000", "160629.308000", "160629.311000", "160629.314000", "160629.317000", "160629.320000", "160649.211000", "160649.214000", "160649.217000", "160649.220000", "160649.223000", "160649.226000", "160649.229000", "160649.232000", "160649.235000", "160649.238000", "160649.241000", "160649.244000", "160649.247000", "160649.250000", "160649.253000", "160649.256000", "160649.259000", "160649.262000", "160649.265000", "160649.268000", "160649.271000", "160649.274000", "160649.277000", "160649.280000", "160649.283000", "160649.286000", "160649.289000", "160649.292000", "160709.211000", "160709.214000", "160709.217000", "160709.220000", "160709.223000", "160709.226000", "160709.229000", "160709.232000", "160709.235000", "160709.238000", "160709.241000", "160709.244000", "160709.247000", "160709.250000", "160709.253000", "160709.256000", "160709.259000", "160709.262000", "160709.265000", "160709.268000", "160709.271000", "160709.274000", "160709.277000", "160709.280000", "160709.283000", "160709.286000", "160709.289000", "160709.292000", "160720.171000", "160720.175000", "160720.178000", "160720.181000", "160720.184000", "160720.187000", "160720.190000", "160720.193000", "160720.196000", "160720.199000", "160720.202000", "160720.205000", "160720.208000", "160720.211000", "160720.214000", "160720.217000"],
      "InstanceNumber": [1, 2, 3, 4, 5, 6, 7, 8, 9, 10, 11, 12, 13, 14, 15, 16, 17, 18, 19, 20, 21, 22, 23, 24, 25, 26, 27, 28, 29, 30, 31, 32, 33, 34, 35, 36, 37, 38, 39, 40, 41, 42, 43, 44, 45, 46, 47, 48, 49, 50, 51, 52, 53, 54, 55, 56, 57, 58, 59, 60, 61, 62, 63, 64, 65, 66, 67, 68, 69, 70, 71, 72, 73, 74, 75, 76, 77, 78, 79, 80, 81, 82, 83, 84, 85, 86, 87, 88, 89, 90, 91, 92, 93, 94, 95, 96, 97, 98, 99, 100, 101, 102, 103, 104, 105, 106, 107, 108, 109, 110, 111, 112, 113, 114, 115, 116, 117, 118, 119, 120, 121, 122, 123, 124, 125, 126, 127, 128, 129, 130, 131, 132, 133, 134, 135, 136, 137, 138, 139, 140, 141, 142, 143, 144, 145, 146, 147, 148, 149, 150, 151, 152, 153, 154, 155, 156, 157, 158, 159, 160, 161, 162, 163, 164, 165, 166, 167, 168, 169, 170, 171, 172, 173, 174, 175, 176, 177, 178, 179, 180, 181, 182, 183, 184, 185, 186, 187, 188, 189, 190, 191, 192],
      "LargestImagePixelValue": [35607, 31496, 34012, 36763, 30798, 33694, 34766, 34330, 30776, 34088, 33484, 34507, 36879, 31202, 30918, 33680, 33968, 30649, 36614, 37233, 33622, 33668, 30413, 33652, 34665, 32432, 30864, 30814, 36138, 32864, 32862, 30647, 30594, 38458, 32189, 35672, 32942, 33467, 30770, 31890, 32219, 37106, 33776, 32767, 30967, 30688, 30934, 34342, 32306, 30965, 30887, 31614, 31617, 35400, 30677, 33875, 33366, 33478, 32867, 30735, 30958, 30911, 34433, 32977, 34174, 33068, 32613, 34030, 32452, 34104, 30679, 30735, 31050, 33966, 33202, 32712, 32785, 30840, 35563, 33249, 33536, 31723, 31698, 31247, 30631, 31207, 33139, 31716, 31016, 30823, 31084, 30877, 33954, 32455, 31058, 33636, 33155, 34436, 31122, 33357, 35724, 32906, 31104, 31115, 30913, 34226, 33412, 30981, 30761, 30830, 34233, 33263, 35540, 31807, 38275, 33871, 33484, 32632, 33176, 31128, 31086, 36611, 31151, 34710, 33939, 33736, 35071, 37859, 31139, 36790, 33970, 34862, 33266, 33098, 33654, 36096, 31376, 31162, 33321, 31088, 36324, 35196, 33321, 33190, 31177, 31548, 38441, 33426, 32934, 31188, 31473, 35150, 33609, 33750, 33932, 32204, 30979, 36164, 32988, 31612, 31195, 31538, 36353, 32360, 35276, 31256, 34256, 34061, 33426, 33414, 34848, 31095, 35480, 37654, 33742, 34377, 32897, 31374, 31423, 31175, 35476, 31585, 36870, 34218, 31647, 32535, 31550, 31479, 37662, 31401, 35725, 34217],
      "WindowCenter": [9803.0, 9709.0, 9743.0, 9773.0, 9681.0, 9721.0, 9730.0, 9732.0, 9693.0, 9759.0, 9748.0, 9757.0, 9774.0, 9693.0, 9685.0, 9727.0, 9732.0, 9681.0, 9759.0, 9763.0, 9717.0, 9710.0, 9665.0, 9702.0, 9718.0, 9683.0, 9661.0, 9669.0, 9758.0, 9715.0, 9714.0, 9679.0, 9672.0, 9770.0, 9684.0, 9727.0, 9688.0, 9705.0, 9663.0, 9696.0, 9703.0, 9770.0, 9723.0, 9699.0, 9675.0, 9670.0, 9675.0, 9720.0, 9699.0, 9684.0, 9687.0, 9706.0, 9706.0, 9756.0, 9680.0, 9715.0, 9700.0, 9699.0, 9693.0, 9659.0, 9660.0, 9665.0, 9716.0, 9694.0, 9712.0, 9704.0, 9706.0, 9724.0, 9710.0, 9740.0, 9689.0, 9681.0, 9669.0, 9703.0, 9690.0, 9679.0, 9687.0, 9664.0, 9753.0, 9728.0, 9734.0, 9698.0, 9689.0, 9682.0, 9663.0, 9672.0, 9702.0, 9689.0, 9693.0, 9697.0, 9698.0, 9691.0, 9739.0, 9710.0, 9703.0, 9743.0, 9719.0, 9717.0, 9651.0, 9692.0, 9733.0, 9703.0, 9677.0, 9677.0, 9668.0, 9720.0, 9709.0, 9670.0, 9672.0, 9672.0, 9729.0, 9719.0, 9754.0, 9699.0, 9782.0, 9723.0, 9716.0, 9705.0, 9719.0, 9689.0, 9699.0, 9777.0, 9696.0, 9737.0, 9725.0, 9718.0, 9739.0, 9767.0, 9685.0, 9772.0, 9735.0, 9759.0, 9736.0, 9724.0, 9734.0, 9767.0, 9695.0, 9696.0, 9728.0, 9688.0, 9764.0, 9742.0, 9719.0, 9713.0, 9679.0, 9698.0, 9795.0, 9739.0, 9742.0, 9717.0, 9727.0, 9780.0, 9739.0, 9721.0, 9717.0, 9688.0, 9669.0, 9750.0, 9714.0, 9693.0, 9690.0, 9707.0, 9767.0, 9711.0, 9744.0, 9695.0, 9733.0, 9719.0, 9714.0, 9713.0, 9737.0, 9687.0, 9758.0, 9785.0, 9728.0, 9739.0, 9718.0, 9703.0, 9713.0, 9707.0, 9774.0, 9709.0, 9773.0, 9732.0, 9692.0, 9710.0, 9701.0, 9697.0, 9786.0, 9694.0, 9754.0, 9730.0],
      "WindowWidth": [20993.0, 20801.0, 20846.0, 20888.0, 20728.0, 20792.0, 20803.0, 20813.0, 20757.0, 20870.0, 20852.0, 20862.0, 20882.0, 20743.0, 20729.0, 20803.0, 20814.0, 20726.0, 20856.0, 20860.0, 20782.0, 20766.0, 20692.0, 20751.0, 20775.0, 20716.0, 20680.0, 20700.0, 20856.0, 20786.0, 20780.0, 20720.0, 20709.0, 20867.0, 20719.0, 20791.0, 20726.0, 20757.0, 20690.0, 20751.0, 20766.0, 20878.0, 20797.0, 20753.0, 20712.0, 20705.0, 20714.0, 20787.0, 20754.0, 20733.0, 20742.0, 20776.0, 20776.0, 20857.0, 20725.0, 20775.0, 20744.0, 20744.0, 20736.0, 20680.0, 20683.0, 20691.0, 20776.0, 20740.0, 20772.0, 20763.0, 20769.0, 20803.0, 20784.0, 20833.0, 20746.0, 20729.0, 20701.0, 20747.0, 20723.0, 20707.0, 20727.0, 20695.0, 20851.0, 20815.0, 20827.0, 20761.0, 20740.0, 20724.0, 20692.0, 20704.0, 20754.0, 20741.0, 20757.0, 20768.0, 20769.0, 20753.0, 20830.0, 20780.0, 20773.0, 20843.0, 20788.0, 20773.0, 20656.0, 20726.0, 20800.0, 20759.0, 20718.0, 20717.0, 20697.0, 20786.0, 20770.0, 20703.0, 20710.0, 20708.0, 20808.0, 20793.0, 20851.0, 20760.0, 20897.0, 20796.0, 20781.0, 20763.0, 20792.0, 20749.0, 20770.0, 20900.0, 20760.0, 20822.0, 20799.0, 20785.0, 20818.0, 20866.0, 20735.0, 20882.0, 20825.0, 20869.0, 20831.0, 20809.0, 20823.0, 20878.0, 20760.0, 20762.0, 20814.0, 20743.0, 20868.0, 20830.0, 20790.0, 20779.0, 20723.0, 20758.0, 20924.0, 20838.0, 20849.0, 20811.0, 20836.0, 20918.0, 20837.0, 20793.0, 20779.0, 20730.0, 20701.0, 20840.0, 20785.0, 20752.0, 20751.0, 20779.0, 20878.0, 20784.0, 20834.0, 20755.0, 20818.0, 20791.0, 20782.0, 20780.0, 20824.0, 20743.0, 20864.0, 20909.0, 20815.0, 20832.0, 20795.0, 20773.0, 20796.0, 20785.0, 20892.0, 20779.0, 20885.0, 20814.0, 20747.0, 20778.0, 20768.0, 20764.0, 20909.0, 20752.0, 20850.0, 20811.0]
    },
    "slices": {}
  },
  "NumberOfVolumes": 192
}