{
  "AcquisitionMatrixPE": 104,
  "AcquisitionNumber": 1,
  "AcquisitionTime": "15:48:45.772500",
  "BandwidthPerPixelPhaseEncode": 16.578,
  "BaseResolution": 104,
  "BodyPartExamined": "BRAIN",
  "ConsistencyInfo": "N4_VE11C_LATEST_20160120",
  "ConversionSoftware": "dcm2niix",
  "ConversionSoftwareVersion": "v1.0.20190902",
  "DerivedVendorReportedEchoSpacing": 0.000580009,
  "DeviceSerialNumber": "166018",
  "DwellTime": 2.1e-06,
  "EchoTime": 0.037,
  "EchoTrainLength": 104,
  "EffectiveEchoSpacing": 0.000580009,
  "FlipAngle": 68,
  "ImageComments": "Unaliased_MB6_PE3_LB",
  "ImageOrientationPatientDICOM": [0.998521, -0.0247588, 0.048393, 0.0415013, 0.922188, -0.38451],
  "ImageType": [
    "ORIGINAL",
    "PRIMARY",
    "M",
    "MB",
    "ND",
    "MOSAIC"
],
  "ImagingFrequency": 123.191,
  "InPlanePhaseEncodingDirectionDICOM": "COL",
  "InstitutionAddress": "Washington_Place_6_NYC_NYC_US_10003",
  "InstitutionName": "NYU_-_CBI",
  "InstitutionalDepartmentName": "Department",
  "MRAcquisitionType": "2D",
  "MagneticFieldStrength": 3,
  "Manufacturer": "Siemens",
  "ManufacturersModelName": "Prisma",
  "Modality": "MR",
  "MultibandAccelerationFactor": 6,
  "PartialFourier": 1,
  "PatientPosition": "HFS",
  "PercentPhaseFOV": 100,
  "PhaseEncodingDirection": "j",
  "PhaseEncodingSteps": 104,
  "PhaseResolution": 1,
  "PixelBandwidth": 2290,
  "ProcedureStepDescription": "Investigators_Winawer",
  "ProtocolName": "cmrr_mbepi_s6_2mm_66sl_PA_TR1.0",
  "PulseSequenceDetails": "%CustomerSeq%_cmrr_mbep2d_bold",
  "ReceiveCoilActiveElements": "HC1-7",
  "ReceiveCoilName": "HeadNeck_64",
  "ReconMatrixPE": 104,
  "RepetitionTime": 1,
  "SAR": 0.065334,
  "ScanOptions": "FS",
  "ScanningSequence": "EP",
  "SequenceName": "epfid2d1_104",
  "SequenceVariant": "SK_SS",
  "SeriesDescription": "cmrr_mbepi_s6_2mm_66sl_PA_TR1.0",
  "SeriesNumber": 10,
  "ShimSetting": [261, -12580, -8459, 482, 6, -143, -82, -33],
  "SliceThickness": 2,
  "SliceTiming": [0, 0.535, 0.09, 0.625, 0.18, 0.7125, 0.2675, 0.8025, 0.3575, 0.8925, 0.445, 0, 0.535, 0.09, 0.625, 0.18, 0.7125, 0.2675, 0.8025, 0.3575, 0.8925, 0.445, 0, 0.535, 0.09, 0.625, 0.18, 0.7125, 0.2675, 0.8025, 0.3575, 0.8925, 0.445, 0, 0.535, 0.09, 0.625, 0.18, 0.7125, 0.2675, 0.8025, 0.3575, 0.8925, 0.445, 0, 0.535, 0.09, 0.625, 0.18, 0.7125, 0.2675, 0.8025, 0.3575, 0.8925, 0.445, 0, 0.535, 0.09, 0.625, 0.18, 0.7125, 0.2675, 0.8025, 0.3575, 0.8925, 0.445],
  "SoftwareVersions": "syngo_MR_E11",
  "SpacingBetweenSlices": 2,
  "StationName": "AWP166018",
  "TaskName": "prf",
  "TotalReadoutTime": 0.0597409,
  "TxRefAmp": 234.373,
  "WipMemBlock": "e09831b8-77a3-4b06-86e3-53ba9871f217||Sequence: ve11c/master r/ab69a6c; Apr 19 2017 09:47:47 by eja",
  "dcmmeta_affine": [
    [-1.9970428943634033, 0.0830025002360344, 0.0702148973941803, 110.34679412841797],
    [0.049517672508955, 1.8443751335144043, -0.7718992829322815, -64.71625518798828],
    [0.09678608924150467, 0.7690195441246033, 1.843703269958496, -96.47901916503906],
    [0.0, 0.0, 0.0, 1.0]
],
  "dcmmeta_reorient_transform": [
    [0.0, -1.0, 0.0, 103.0],
    [1.0, 0.0, 0.0, 0.0],
    [0.0, 0.0, 1.0, 0.0],
    [0.0, 0.0, 0.0, 1.0]
],
  "dcmmeta_shape": [104, 104, 66, 192],
  "dcmmeta_slice_dim": 2,
  "dcmmeta_version": 0.6,
  "global": {
    "const": {
      "AccessionNumber": "j6wepnxe",
      "AcquisitionMatrix": [104, 0, 0, 104],
      "AngioFlag": "N",
      "BitsAllocated": 16,
      "BitsStored": 16,
      "BodyPartExamined": "BRAIN",
      "Columns": 936,
      "EchoNumbers": 1,
      "EchoTime": 37.0,
      "EchoTrainLength": 104,
      "FlipAngle": 68.0,
      "HighBit": 15,
      "ImageOrientationPatient": [0.99852146361479, -0.0247588370637, 0.04839304379581, 0.04150125035507, 0.9221875559071, -0.3845097631388],
      "ImagePositionPatient": [-984.19494958396, -871.91507572875, 262.37910260703],
      "ImageType": [
        "ORIGINAL",
        "PRIMARY",
        "M",
        "MB",
        "ND",
        "MOSAIC"
],
      "ImagedNucleus": "1H",
      "ImagingFrequency": 123.191343,
      "InPlanePhaseEncodingDirection": "COL",
      "MRAcquisitionType": "2D",
      "MagneticFieldStrength": 3.0,
      "Manufacturer": "SIEMENS",
      "ManufacturerModelName": "Prisma",
      "Modality": "MR",
      "NumberOfAverages": 1.0,
      "NumberOfPhaseEncodingSteps": 104,
      "PercentPhaseFieldOfView": 100.0,
      "PercentSampling": 100.0,
      "PerformedProcedureStepStartTime": "154117.736000",
      "PhotometricInterpretation": "MONOCHROME2",
      "PixelBandwidth": 2290.0,
      "PixelRepresentation": 0,
      "PixelSpacing": [2.0, 2.0],
      "ProtocolName": "cmrr_mbepi_s6_2mm_66sl_PA_TR1.0",
      "RepetitionTime": 1000.0,
      "Rows": 936,
      "SAR": 0.06533400942532,
      "SamplesPerPixel": 1,
      "ScanOptions": "FS",
      "ScanningSequence": "EP",
      "SequenceName": "epfid2d1_104",
      "SequenceVariant": [
        "SK",
        "SS"
],
      "SeriesDescription": "cmrr_mbepi_s6_2mm_66sl_PA_TR1.0",
      "SeriesNumber": 10,
      "SeriesTime": "154955.192000",
      "SliceLocation": -60.088128683745,
      "SliceThickness": 2.0,
      "SmallestImagePixelValue": 0,
      "SoftwareVersions": "syngo MR E11",
      "SpacingBetweenSlices": 2.0000000486852,
      "SpecificCharacterSet": "ISO_IR 100",
      "StudyID": "1",
      "StudyTime": "154117.674000",
      "TransmitCoilName": "Body",
      "VariableFlipAngleFlag": "N",
      "WindowCenterWidthExplanation": "Algo1",
      "dBdt": 0.0},
    "slices": {}
  },
  "time": {
    "samples": {
      "AcquisitionNumber": [1, 2, 3, 4, 5, 6, 7, 8, 9, 10, 11, 12, 13, 14, 15, 16, 17, 18, 19, 20, 21, 22, 23, 24, 25, 26, 27, 28, 29, 30, 31, 32, 33, 34, 35, 36, 37, 38, 39, 40, 41, 42, 43, 44, 45, 46, 47, 48, 49, 50, 51, 52, 53, 54, 55, 56, 57, 58, 59, 60, 61, 62, 63, 64, 65, 66, 67, 68, 69, 70, 71, 72, 73, 74, 75, 76, 77, 78, 79, 80, 81, 82, 83, 84, 85, 86, 87, 88, 89, 90, 91, 92, 93, 94, 95, 96, 97, 98, 99, 100, 101, 102, 103, 104, 105, 106, 107, 108, 109, 110, 111, 112, 113, 114, 115, 116, 117, 118, 119, 120, 121, 122, 123, 124, 125, 126, 127, 128, 129, 130, 131, 132, 133, 134, 135, 136, 137, 138, 139, 140, 141, 142, 143, 144, 145, 146, 147, 148, 149, 150, 151, 152, 153, 154, 155, 156, 157, 158, 159, 160, 161, 162, 163, 164, 165, 166, 167, 168, 169, 170, 171, 172, 173, 174, 175, 176, 177, 178, 179, 180, 181, 182, 183, 184, 185, 186, 187, 188, 189, 190, 191, 192],
      "AcquisitionTime": ["154845.772500", "154846.772500", "154847.772500", "154848.772500", "154849.772500", "154850.772500", "154851.772500", "154852.772500", "154853.772500", "154854.772500", "154855.772500", "154856.772500", "154857.772500", "154858.772500", "154859.772500", "154900.772500", "154901.772500", "154902.772500", "154903.772500", "154904.772500", "154905.772500", "154906.772500", "154907.772500", "154908.772500", "154909.772500", "154910.772500", "154911.772500", "154912.772500", "154913.772500", "154914.772500", "154915.772500", "154916.772500", "154917.772500", "154918.772500", "154919.772500", "154920.772500", "154921.772500", "154922.772500", "154923.772500", "154924.772500", "154925.772500", "154926.772500", "154927.772500", "154928.772500", "154929.772500", "154930.772500", "154931.772500", "154932.772500", "154933.772500", "154934.772500", "154935.772500", "154936.772500", "154937.772500", "154938.772500", "154939.772500", "154940.772500", "154941.772500", "154942.772500", "154943.772500", "154944.772500", "154945.772500", "154946.772500", "154947.772500", "154948.772500", "154949.772500", "154950.772500", "154951.772500", "154952.772500", "154953.772500", "154954.772500", "154955.772500", "154956.772500", "154957.772500", "154958.772500", "154959.772500", "155000.772500", "155001.772500", "155002.772500", "155003.772500", "155004.772500", "155005.772500", "155006.772500", "155007.772500", "155008.772500", "155009.772500", "155010.772500", "155011.772500", "155012.772500", "155013.772500", "155014.772500", "155015.772500", "155016.772500", "155017.772500", "155018.772500", "155019.772500", "155020.772500", "155021.772500", "155022.772500", "155023.772500", "155024.772500", "155025.772500", "155026.772500", "155027.772500", "155028.772500", "155029.772500", "155030.772500", "155031.772500", "155032.772500", "155033.772500", "155034.772500", "155035.772500", "155036.772500", "155037.772500", "155038.772500", "155039.772500", "155040.772500", "155041.772500", "155042.772500", "155043.772500", "155044.772500", "155045.772500", "155046.772500", "155047.772500", "155048.772500", "155049.772500", "155050.772500", "155051.772500", "155052.772500", "155053.772500", "155054.772500", "155055.772500", "155056.772500", "155057.772500", "155058.772500", "155059.772500", "155100.772500", "155101.772500", "155102.772500", "155103.772500", "155104.772500", "155105.772500", "155106.772500", "155107.772500", "155108.772500", "155109.772500", "155110.772500", "155111.772500", "155112.772500", "155113.772500", "155114.772500", "155115.772500", "155116.772500", "155117.772500", "155118.772500", "155119.772500", "155120.772500", "155121.772500", "155122.772500", "155123.772500", "155124.772500", "155125.772500", "155126.772500", "155127.772500", "155128.772500", "155129.772500", "155130.772500", "155131.772500", "155132.772500", "155133.772500", "155134.772500", "155135.772500", "155136.772500", "155137.772500", "155138.772500", "155139.772500", "155140.772500", "155141.772500", "155142.772500", "155143.772500", "155144.772500", "155145.772500", "155146.772500", "155147.772500", "155148.772500", "155149.772500", "155150.772500", "155151.772500", "155152.772500", "155153.772500", "155154.772500", "155155.772500", "155156.772500"],
      "ContentTime": ["154955.195000", "154955.199000", "154955.202000", "154955.205000", "154955.208000", "154955.211000", "154955.214000", "154955.217000", "154955.220000", "154955.230000", "154955.232000", "154955.235000", "154955.239000", "154955.247000", "154955.249000", "154955.252000", "154955.256000", "154955.258000", "154955.261000", "154955.264000", "154955.267000", "154955.270000", "154955.273000", "154955.276000", "154955.283000", "154955.286000", "155015.161000", "155015.165000", "155015.168000", "155015.171000", "155015.174000", "155015.177000", "155015.180000", "155015.183000", "155015.186000", "155015.189000", "155015.192000", "155015.195000", "155015.198000", "155015.201000", "155015.204000", "155015.207000", "155015.210000", "155015.213000", "155015.216000", "155015.219000", "155015.222000", "155015.225000", "155015.228000", "155015.231000", "155015.234000", "155015.237000", "155015.240000", "155015.243000", "155035.161000", "155035.164000", "155035.167000", "155035.170000", "155035.173000", "155035.176000", "155035.179000", "155035.182000", "155035.185000", "155035.188000", "155035.191000", "155035.194000", "155035.197000", "155035.200000", "155035.203000", "155035.206000", "155035.213000", "155035.216000", "155035.219000", "155035.222000", "155035.225000", "155035.228000", "155035.231000", "155035.234000", "155035.237000", "155035.240000", "155035.243000", "155035.246000", "155035.249000", "155055.161000", "155055.164000", "155055.167000", "155055.170000", "155055.173000", "155055.176000", "155055.179000", "155055.182000", "155055.185000", "155055.188000", "155055.191000", "155055.194000", "155055.197000", "155055.200000", "155055.203000", "155055.206000", "155055.209000", "155055.212000", "155055.215000", "155055.218000", "155055.221000", "155055.224000", "155055.227000", "155055.230000", "155055.233000", "155055.236000", "155055.239000", "155055.242000", "155115.161000", "155115.164000", "155115.167000", "155115.170000", "155115.173000", "155115.176000", "155115.179000", "155115.182000", "155115.185000", "155115.188000", "155115.191000", "155115.194000", "155115.197000", "155115.200000", "155115.203000", "155115.206000", "155115.209000", "155115.212000", "155115.215000", "155115.218000", "155115.221000", "155115.228000", "155115.230000", "155115.233000", "155115.236000", "155115.239000", "155115.242000", "155115.245000", "155135.161000", "155135.164000", "155135.167000", "155135.170000", "155135.173000", "155135.176000", "155135.179000", "155135.182000", "155135.185000", "155135.188000", "155135.191000", "155135.194000", "155135.197000", "155135.200000", "155135.203000", "155135.206000", "155135.209000", "155135.212000", "155135.226000", "155135.229000", "155135.232000", "155135.235000", "155135.238000", "155135.241000", "155135.244000", "155135.247000", "155135.250000", "155135.253000", "155155.161000", "155155.164000", "155155.167000", "155155.170000", "155155.173000", "155155.176000", "155155.179000", "155155.182000", "155155.185000", "155155.188000", "155155.191000", "155155.194000", "155155.224000", "155155.227000", "155155.230000", "155155.233000", "155155.236000", "155155.239000", "155155.242000", "155155.245000", "155155.248000", "155158.520000", "155158.523000", "155158.526000", "155158.530000"],
      "InstanceCreationTime": ["154955.195000", "154955.199000", "154955.202000", "154955.205000", "154955.208000", "154955.211000", "154955.214000", "154955.217000", "154955.220000", "154955.230000", "154955.232000", "154955.235000", "154955.239000", "154955.247000", "154955.249000", "154955.252000", "154955.256000", "154955.258000", "154955.261000", "154955.264000", "154955.267000", "154955.270000", "154955.273000", "154955.276000", "154955.283000", "154955.286000", "155015.161000", "155015.165000", "155015.168000", "155015.171000", "155015.174000", "155015.177000", "155015.180000", "155015.183000", "155015.186000", "155015.189000", "155015.192000", "155015.195000", "155015.198000", "155015.201000", "155015.204000", "155015.207000", "155015.210000", "155015.213000", "155015.216000", "155015.219000", "155015.222000", "155015.225000", "155015.228000", "155015.231000", "155015.234000", "155015.237000", "155015.240000", "155015.243000", "155035.161000", "155035.164000", "155035.167000", "155035.170000", "155035.173000", "155035.176000", "155035.179000", "155035.182000", "155035.185000", "155035.188000", "155035.191000", "155035.194000", "155035.197000", "155035.200000", "155035.203000", "155035.206000", "155035.213000", "155035.216000", "155035.219000", "155035.222000", "155035.225000", "155035.228000", "155035.231000", "155035.234000", "155035.237000", "155035.240000", "155035.243000", "155035.246000", "155035.249000", "155055.161000", "155055.164000", "155055.167000", "155055.170000", "155055.173000", "155055.176000", "155055.179000", "155055.182000", "155055.185000", "155055.188000", "155055.191000", "155055.194000", "155055.197000", "155055.200000", "155055.203000", "155055.206000", "155055.209000", "155055.212000", "155055.215000", "155055.218000", "155055.221000", "155055.224000", "155055.227000", "155055.230000", "155055.233000", "155055.236000", "155055.239000", "155055.242000", "155115.161000", "155115.164000", "155115.167000", "155115.170000", "155115.173000", "155115.176000", "155115.179000", "155115.182000", "155115.185000", "155115.188000", "155115.191000", "155115.194000", "155115.197000", "155115.200000", "155115.203000", "155115.206000", "155115.209000", "155115.212000", "155115.215000", "155115.218000", "155115.221000", "155115.228000", "155115.230000", "155115.233000", "155115.236000", "155115.239000", "155115.242000", "155115.245000", "155135.161000", "155135.164000", "155135.167000", "155135.170000", "155135.173000", "155135.176000", "155135.179000", "155135.182000", "155135.185000", "155135.188000", "155135.191000", "155135.194000", "155135.197000", "155135.200000", "155135.203000", "155135.206000", "155135.209000", "155135.212000", "155135.226000", "155135.229000", "155135.232000", "155135.235000", "155135.238000", "155135.241000", "155135.244000", "155135.247000", "155135.250000", "155135.253000", "155155.161000", "155155.164000", "155155.167000", "155155.170000", "155155.173000", "155155.176000", "155155.179000", "155155.182000", "155155.185000", "155155.188000", "155155.191000", "155155.194000", "155155.224000", "155155.227000", "155155.230000", "155155.233000", "155155.236000", "155155.239000", "155155.242000", "155155.245000", "155155.248000", "155158.520000", "155158.523000", "155158.526000", "155158.530000"],
      "InstanceNumber": [1, 2, 3, 4, 5, 6, 7, 8, 9, 10, 11, 12, 13, 14, 15, 16, 17, 18, 19, 20, 21, 22, 23, 24, 25, 26, 27, 28, 29, 30, 31, 32, 33, 34, 35, 36, 37, 38, 39, 40, 41, 42, 43, 44, 45, 46, 47, 48, 49, 50, 51, 52, 53, 54, 55, 56, 57, 58, 59, 60, 61, 62, 63, 64, 65, 66, 67, 68, 69, 70, 71, 72, 73, 74, 75, 76, 77, 78, 79, 80, 81, 82, 83, 84, 85, 86, 87, 88, 89, 90, 91, 92, 93, 94, 95, 96, 97, 98, 99, 100, 101, 102, 103, 104, 105, 106, 107, 108, 109, 110, 111, 112, 113, 114, 115, 116, 117, 118, 119, 120, 121, 122, 123, 124, 125, 126, 127, 128, 129, 130, 131, 132, 133, 134, 135, 136, 137, 138, 139, 140, 141, 142, 143, 144, 145, 146, 147, 148, 149, 150, 151, 152, 153, 154, 155, 156, 157, 158, 159, 160, 161, 162, 163, 164, 165, 166, 167, 168, 169, 170, 171, 172, 173, 174, 175, 176, 177, 178, 179, 180, 181, 182, 183, 184, 185, 186, 187, 188, 189, 190, 191, 192],
      "LargestImagePixelValue": [32369, 32101, 32113, 32633, 31428, 31036, 31272, 31131, 30697, 31240, 30915, 33227, 30864, 31038, 31180, 30904, 30924, 31024, 35032, 30893, 30693, 30846, 30757, 30837, 30579, 30538, 30860, 31012, 30605, 30693, 30714, 30772, 30606, 30503, 30944, 30850, 30848, 30409, 30731, 30572, 31033, 30716, 30850, 30859, 30625, 30721, 31036, 30739, 30980, 30495, 30545, 30822, 30797, 30726, 30995, 30720, 30887, 30651, 30771, 30679, 30861, 30518, 31073, 30686, 30889, 30776, 30830, 31053, 30856, 30864, 30805, 30999, 30885, 31365, 31416, 30578, 31157, 30914, 30543, 31052, 30639, 30688, 30730, 31068, 30912, 31009, 30689, 30550, 30797, 30652, 30786, 31142, 30579, 30566, 30703, 31201, 30887, 30783, 30721, 30528, 31102, 31474, 30846, 30565, 30785, 30808, 30923, 30660, 30588, 30854, 32167, 30665, 30881, 31733, 30938, 30597, 31413, 30879, 30985, 31349, 30842, 30890, 30792, 31465, 31036, 31069, 30982, 30758, 30850, 31149, 31754, 30881, 30844, 31090, 30883, 30727, 31242, 31422, 33475, 31172, 30830, 30828, 30965, 30932, 30757, 30895, 30699, 30894, 31331, 30916, 30946, 30936, 30645, 30724, 30602, 31538, 30537, 31104, 31235, 30808, 31621, 31442, 30629, 31169, 32171, 31091, 31265, 30997, 31164, 30742, 30901, 31678, 30898, 32858, 32259, 32029, 31061, 30948, 30934, 30856, 31003, 31066, 30787, 30796, 30545, 30943, 31040, 31318, 31751, 30932, 30892, 30877],
      "WindowCenter": [9771.0, 9730.0, 9716.0, 9737.0, 9732.0, 9735.0, 9724.0, 9707.0, 9694.0, 9706.0, 9714.0, 9750.0, 9705.0, 9725.0, 9727.0, 9739.0, 9746.0, 9739.0, 9774.0, 9701.0, 9692.0, 9702.0, 9711.0, 9712.0, 9710.0, 9694.0, 9691.0, 9690.0, 9685.0, 9691.0, 9686.0, 9699.0, 9701.0, 9705.0, 9716.0, 9710.0, 9702.0, 9695.0, 9702.0, 9700.0, 9700.0, 9700.0, 9700.0, 9683.0, 9674.0, 9672.0, 9678.0, 9670.0, 9668.0, 9658.0, 9667.0, 9688.0, 9689.0, 9690.0, 9695.0, 9691.0, 9696.0, 9691.0, 9692.0, 9691.0, 9690.0, 9675.0, 9687.0, 9689.0, 9706.0, 9700.0, 9700.0, 9706.0, 9707.0, 9709.0, 9710.0, 9714.0, 9714.0, 9713.0, 9703.0, 9682.0, 9680.0, 9676.0, 9656.0, 9660.0, 9654.0, 9662.0, 9670.0, 9678.0, 9678.0, 9678.0, 9689.0, 9692.0, 9699.0, 9690.0, 9681.0, 9676.0, 9669.0, 9679.0, 9689.0, 9711.0, 9697.0, 9680.0, 9673.0, 9674.0, 9688.0, 9696.0, 9691.0, 9692.0, 9699.0, 9701.0, 9715.0, 9702.0, 9701.0, 9699.0, 9721.0, 9699.0, 9705.0, 9711.0, 9705.0, 9692.0, 9703.0, 9684.0, 9680.0, 9684.0, 9671.0, 9678.0, 9672.0, 9679.0, 9686.0, 9688.0, 9698.0, 9700.0, 9692.0, 9699.0, 9710.0, 9699.0, 9700.0, 9699.0, 9697.0, 9698.0, 9713.0, 9722.0, 9756.0, 9707.0, 9698.0, 9689.0, 9680.0, 9686.0, 9680.0, 9687.0, 9691.0, 9705.0, 9713.0, 9705.0, 9697.0, 9689.0, 9674.0, 9680.0, 9682.0, 9710.0, 9702.0, 9715.0, 9729.0, 9717.0, 9720.0, 9713.0, 9700.0, 9707.0, 9720.0, 9699.0, 9722.0, 9724.0, 9707.0, 9681.0, 9667.0, 9678.0, 9684.0, 9734.0, 9731.0, 9726.0, 9707.0, 9708.0, 9706.0, 9700.0, 9704.0, 9697.0, 9689.0, 9687.0, 9682.0, 9695.0, 9691.0, 9694.0, 9694.0, 9689.0, 9688.0, 9682.0],
      "WindowWidth": [20946.0, 20839.0, 20799.0, 20838.0, 20840.0, 20847.0, 20818.0, 20783.0, 20760.0, 20781.0, 20800.0, 20860.0, 20784.0, 20824.0, 20830.0, 20860.0, 20875.0, 20858.0, 20903.0, 20768.0, 20748.0, 20775.0, 20794.0, 20796.0, 20785.0, 20755.0, 20747.0, 20740.0, 20736.0, 20748.0, 20743.0, 20767.0, 20775.0, 20789.0, 20806.0, 20790.0, 20776.0, 20766.0, 20777.0, 20770.0, 20772.0, 20773.0, 20769.0, 20732.0, 20708.0, 20704.0, 20717.0, 20699.0, 20694.0, 20678.0, 20699.0, 20739.0, 20744.0, 20745.0, 20754.0, 20750.0, 20757.0, 20752.0, 20753.0, 20749.0, 20745.0, 20713.0, 20735.0, 20744.0, 20783.0, 20774.0, 20775.0, 20785.0, 20791.0, 20798.0, 20798.0, 20803.0, 20800.0, 20794.0, 20771.0, 20732.0, 20726.0, 20715.0, 20677.0, 20682.0, 20669.0, 20687.0, 20706.0, 20721.0, 20719.0, 20720.0, 20750.0, 20760.0, 20770.0, 20750.0, 20730.0, 20712.0, 20699.0, 20723.0, 20747.0, 20790.0, 20762.0, 20726.0, 20711.0, 20717.0, 20745.0, 20760.0, 20752.0, 20758.0, 20773.0, 20778.0, 20806.0, 20782.0, 20779.0, 20773.0, 20807.0, 20773.0, 20783.0, 20794.0, 20785.0, 20760.0, 20778.0, 20742.0, 20730.0, 20732.0, 20707.0, 20718.0, 20712.0, 20725.0, 20739.0, 20747.0, 20768.0, 20775.0, 20760.0, 20772.0, 20789.0, 20770.0, 20774.0, 20771.0, 20764.0, 20768.0, 20800.0, 20822.0, 20876.0, 20789.0, 20768.0, 20747.0, 20728.0, 20736.0, 20725.0, 20743.0, 20754.0, 20783.0, 20797.0, 20784.0, 20768.0, 20749.0, 20721.0, 20730.0, 20735.0, 20792.0, 20784.0, 20807.0, 20836.0, 20815.0, 20817.0, 20801.0, 20778.0, 20791.0, 20808.0, 20772.0, 20818.0, 20826.0, 20787.0, 20729.0, 20693.0, 20713.0, 20735.0, 20833.0, 20831.0, 20823.0, 20788.0, 20789.0, 20784.0, 20774.0, 20780.0, 20765.0, 20747.0, 20742.0, 20735.0, 20760.0, 20755.0, 20758.0, 20756.0, 20747.0, 20745.0, 20734.0]
    },
    "slices": {}
  },
  "NumberOfVolumes": 192
}