{
  "AcquisitionMatrixPE": 104,
  "AcquisitionNumber": 1,
  "AcquisitionTime": "17:18:37.555000",
  "BandwidthPerPixelPhaseEncode": 16.578,
  "BaseResolution": 104,
  "BodyPartExamined": "BRAIN",
  "ConsistencyInfo": "N4_VE11C_LATEST_20160120",
  "ConversionSoftware": "dcm2niix",
  "ConversionSoftwareVersion": "v1.0.20190902",
  "DerivedVendorReportedEchoSpacing": 0.000580009,
  "DeviceSerialNumber": "166018",
  "DwellTime": 2.1e-06,
  "EchoTime": 0.037,
  "EchoTrainLength": 104,
  "EffectiveEchoSpacing": 0.000580009,
  "FlipAngle": 68,
  "ImageComments": "Unaliased_MB6_PE3_LB",
  "ImageOrientationPatientDICOM": [0.997542, -0.0458307, 0.0529967, 0.0571685, 0.969709, -0.237478],
  "ImageType": [
    "ORIGINAL",
    "PRIMARY",
    "M",
    "MB",
    "ND",
    "MOSAIC"
],
  "ImagingFrequency": 123.191,
  "InPlanePhaseEncodingDirectionDICOM": "COL",
  "InstitutionAddress": "Washington_Place_6_NYC_NYC_US_10003",
  "InstitutionName": "NYU_-_CBI",
  "InstitutionalDepartmentName": "Department",
  "MRAcquisitionType": "2D",
  "MagneticFieldStrength": 3,
  "Manufacturer": "Siemens",
  "ManufacturersModelName": "Prisma",
  "Modality": "MR",
  "MultibandAccelerationFactor": 6,
  "PartialFourier": 1,
  "PatientPosition": "HFS",
  "PercentPhaseFOV": 100,
  "PhaseEncodingDirection": "j",
  "PhaseEncodingSteps": 104,
  "PhaseResolution": 1,
  "PixelBandwidth": 2290,
  "ProcedureStepDescription": "Investigators_Winawer",
  "ProtocolName": "cmrr_mbepi_s6_2mm_66sl_PA_TR1.0",
  "PulseSequenceDetails": "%CustomerSeq%_cmrr_mbep2d_bold",
  "ReceiveCoilActiveElements": "HC1-7",
  "ReceiveCoilName": "HeadNeck_64",
  "ReconMatrixPE": 104,
  "RepetitionTime": 1,
  "SAR": 0.0800726,
  "ScanOptions": "FS",
  "ScanningSequence": "EP",
  "SequenceName": "epfid2d1_104",
  "SequenceVariant": "SK_SS",
  "SeriesDescription": "cmrr_mbepi_s6_2mm_66sl_PA_TR1.0",
  "SeriesNumber": 26,
  "ShimSetting": [253, -12564, -8485, 467, -12, -184, -35, 8],
  "SliceThickness": 2,
  "SliceTiming": [0, 0.5325, 0.0875, 0.6225, 0.1775, 0.7125, 0.265, 0.8, 0.355, 0.89, 0.445, 0, 0.5325, 0.0875, 0.6225, 0.1775, 0.7125, 0.265, 0.8, 0.355, 0.89, 0.445, 0, 0.5325, 0.0875, 0.6225, 0.1775, 0.7125, 0.265, 0.8, 0.355, 0.89, 0.445, 0, 0.5325, 0.0875, 0.6225, 0.1775, 0.7125, 0.265, 0.8, 0.355, 0.89, 0.445, 0, 0.5325, 0.0875, 0.6225, 0.1775, 0.7125, 0.265, 0.8, 0.355, 0.89, 0.445, 0, 0.5325, 0.0875, 0.6225, 0.1775, 0.7125, 0.265, 0.8, 0.355, 0.89, 0.445],
  "SoftwareVersions": "syngo_MR_E11",
  "SpacingBetweenSlices": 2,
  "StationName": "AWP166018",
  "TaskName": "prf",
  "TotalReadoutTime": 0.0597409,
  "TxRefAmp": 250.804,
  "WipMemBlock": "ee634ab6-942a-4b10-b12b-f84276b4ac44||Sequence: ve11c/master r/ab69a6c; Apr 19 2017 09:47:47 by eja",
  "dcmmeta_affine": [
    [-1.9950848817825317, 0.1143370270729065, 0.08101527392864227, 105.4575424194336],
    [0.0916614681482315, 1.9394186735153198, -0.4798473119735718, -70.46788787841797],
    [0.10599342733621597, 0.4749550521373749, 1.9398925304412842, -82.23838806152344],
    [0.0, 0.0, 0.0, 1.0]
],
  "dcmmeta_reorient_transform": [
    [0.0, -1.0, 0.0, 103.0],
    [1.0, 0.0, 0.0, 0.0],
    [0.0, 0.0, 1.0, 0.0],
    [0.0, 0.0, 0.0, 1.0]
],
  "dcmmeta_shape": [104, 104, 66, 192],
  "dcmmeta_slice_dim": 2,
  "dcmmeta_version": 0.6,
  "global": {
    "const": {
      "AccessionNumber": "j6wfq5gm",
      "AcquisitionMatrix": [104, 0, 0, 104],
      "AngioFlag": "N",
      "BitsAllocated": 16,
      "BitsStored": 16,
      "BodyPartExamined": "BRAIN",
      "Columns": 936,
      "EchoNumbers": 1,
      "EchoTime": 37.0,
      "EchoTrainLength": 104,
      "FlipAngle": 68.0,
      "HighBit": 15,
      "ImageOrientationPatient": [0.99754242629366, -0.0458307346607, 0.05299671220584, 0.05716851489868, 0.96970933081106, -0.2374775244991],
      "ImagePositionPatient": [-994.75375629416, -897.95922448674, 120.17001961562],
      "ImageType": [
        "ORIGINAL",
        "PRIMARY",
        "M",
        "MB",
        "ND",
        "MOSAIC"
],
      "ImagedNucleus": "1H",
      "ImagingFrequency": 123.19134,
      "InPlanePhaseEncodingDirection": "COL",
      "MRAcquisitionType": "2D",
      "MagneticFieldStrength": 3.0,
      "Manufacturer": "SIEMENS",
      "ManufacturerModelName": "Prisma",
      "Modality": "MR",
      "NumberOfAverages": 1.0,
      "NumberOfPhaseEncodingSteps": 104,
      "PercentPhaseFieldOfView": 100.0,
      "PercentSampling": 100.0,
      "PerformedProcedureStepStartTime": "164024.304000",
      "PhotometricInterpretation": "MONOCHROME2",
      "PixelBandwidth": 2290.0,
      "PixelRepresentation": 0,
      "PixelSpacing": [2.0, 2.0],
      "ProtocolName": "cmrr_mbepi_s6_2mm_66sl_PA_TR1.0",
      "RepetitionTime": 1000.0,
      "Rows": 936,
      "SAR": 0.08007259547669,
      "SamplesPerPixel": 1,
      "ScanOptions": "FS",
      "ScanningSequence": "EP",
      "SequenceName": "epfid2d1_104",
      "SequenceVariant": [
        "SK",
        "SS"
],
      "SeriesDescription": "cmrr_mbepi_s6_2mm_66sl_PA_TR1.0",
      "SeriesNumber": 26,
      "SeriesTime": "171949.248000",
      "SliceLocation": -58.588067354977,
      "SliceThickness": 2.0,
      "SmallestImagePixelValue": 0,
      "SoftwareVersions": "syngo MR E11",
      "SpacingBetweenSlices": 2.0000000254267,
      "SpecificCharacterSet": "ISO_IR 100",
      "StudyID": "1",
      "StudyTime": "164024.247000",
      "TransmitCoilName": "Body",
      "VariableFlipAngleFlag": "N",
      "WindowCenterWidthExplanation": "Algo1",
      "dBdt": 0.0},
    "slices": {}
  },
  "time": {
    "samples": {
      "AcquisitionNumber": [1, 2, 3, 4, 5, 6, 7, 8, 9, 10, 11, 12, 13, 14, 15, 16, 17, 18, 19, 20, 21, 22, 23, 24, 25, 26, 27, 28, 29, 30, 31, 32, 33, 34, 35, 36, 37, 38, 39, 40, 41, 42, 43, 44, 45, 46, 47, 48, 49, 50, 51, 52, 53, 54, 55, 56, 57, 58, 59, 60, 61, 62, 63, 64, 65, 66, 67, 68, 69, 70, 71, 72, 73, 74, 75, 76, 77, 78, 79, 80, 81, 82, 83, 84, 85, 86, 87, 88, 89, 90, 91, 92, 93, 94, 95, 96, 97, 98, 99, 100, 101, 102, 103, 104, 105, 106, 107, 108, 109, 110, 111, 112, 113, 114, 115, 116, 117, 118, 119, 120, 121, 122, 123, 124, 125, 126, 127, 128, 129, 130, 131, 132, 133, 134, 135, 136, 137, 138, 139, 140, 141, 142, 143, 144, 145, 146, 147, 148, 149, 150, 151, 152, 153, 154, 155, 156, 157, 158, 159, 160, 161, 162, 163, 164, 165, 166, 167, 168, 169, 170, 171, 172, 173, 174, 175, 176, 177, 178, 179, 180, 181, 182, 183, 184, 185, 186, 187, 188, 189, 190, 191, 192],
      "AcquisitionTime": ["171837.555000", "171838.555000", "171839.555000", "171840.555000", "171841.555000", "171842.555000", "171843.555000", "171844.555000", "171845.555000", "171846.555000", "171847.555000", "171848.555000", "171849.555000", "171850.555000", "171851.555000", "171852.555000", "171853.555000", "171854.555000", "171855.555000", "171856.555000", "171857.555000", "171858.555000", "171859.555000", "171900.555000", "171901.555000", "171902.555000", "171903.555000", "171904.555000", "171905.555000", "171906.555000", "171907.555000", "171908.555000", "171909.555000", "171910.555000", "171911.555000", "171912.555000", "171913.555000", "171914.555000", "171915.555000", "171916.555000", "171917.555000", "171918.555000", "171919.555000", "171920.555000", "171921.555000", "171922.555000", "171923.555000", "171924.555000", "171925.555000", "171926.555000", "171927.555000", "171928.555000", "171929.555000", "171930.555000", "171931.555000", "171932.555000", "171933.555000", "171934.555000", "171935.555000", "171936.555000", "171937.555000", "171938.555000", "171939.555000", "171940.555000", "171941.555000", "171942.555000", "171943.555000", "171944.555000", "171945.555000", "171946.555000", "171947.555000", "171948.555000", "171949.555000", "171950.555000", "171951.555000", "171952.555000", "171953.555000", "171954.555000", "171955.555000", "171956.555000", "171957.555000", "171958.555000", "171959.555000", "172000.555000", "172001.555000", "172002.555000", "172003.555000", "172004.555000", "172005.555000", "172006.555000", "172007.555000", "172008.555000", "172009.555000", "172010.555000", "172011.555000", "172012.555000", "172013.555000", "172014.555000", "172015.555000", "172016.555000", "172017.555000", "172018.555000", "172019.555000", "172020.555000", "172021.555000", "172022.555000", "172023.555000", "172024.555000", "172025.555000", "172026.555000", "172027.555000", "172028.555000", "172029.555000", "172030.555000", "172031.555000", "172032.555000", "172033.555000", "172034.555000", "172035.555000", "172036.555000", "172037.555000", "172038.555000", "172039.555000", "172040.555000", "172041.555000", "172042.555000", "172043.555000", "172044.555000", "172045.555000", "172046.555000", "172047.555000", "172048.555000", "172049.555000", "172050.555000", "172051.555000", "172052.555000", "172053.555000", "172054.555000", "172055.555000", "172056.555000", "172057.555000", "172058.555000", "172059.555000", "172100.555000", "172101.555000", "172102.555000", "172103.555000", "172104.555000", "172105.555000", "172106.555000", "172107.555000", "172108.555000", "172109.555000", "172110.555000", "172111.555000", "172112.555000", "172113.555000", "172114.555000", "172115.555000", "172116.555000", "172117.555000", "172118.555000", "172119.555000", "172120.555000", "172121.555000", "172122.555000", "172123.555000", "172124.555000", "172125.555000", "172126.555000", "172127.555000", "172128.555000", "172129.555000", "172130.555000", "172131.555000", "172132.555000", "172133.555000", "172134.555000", "172135.555000", "172136.555000", "172137.555000", "172138.555000", "172139.555000", "172140.555000", "172141.555000", "172142.555000", "172143.555000", "172144.555000", "172145.555000", "172146.555000", "172147.555000", "172148.555000"],
      "ContentTime": ["171949.251000", "171949.254000", "171949.257000", "171949.260000", "171949.263000", "171949.266000", "171949.269000", "171949.272000", "171949.275000", "171949.278000", "171949.282000", "171949.285000", "171949.288000", "171949.290000", "171949.294000", "171949.297000", "171949.300000", "171949.303000", "171949.306000", "171949.309000", "171949.311000", "171949.314000", "172009.211000", "172009.223000", "172009.226000", "172009.229000", "172009.232000", "172009.235000", "172009.238000", "172009.241000", "172009.244000", "172009.247000", "172009.250000", "172009.260000", "172009.263000", "172009.266000", "172009.269000", "172009.272000", "172009.275000", "172009.278000", "172009.281000", "172009.284000", "172009.286000", "172009.290000", "172009.293000", "172009.295000", "172009.298000", "172009.301000", "172009.304000", "172009.307000", "172009.310000", "172029.211000", "172029.214000", "172029.217000", "172029.220000", "172029.223000", "172029.226000", "172029.229000", "172029.232000", "172029.235000", "172029.238000", "172029.241000", "172029.243000", "172029.247000", "172029.249000", "172029.252000", "172029.255000", "172029.258000", "172029.261000", "172029.264000", "172029.267000", "172029.270000", "172029.273000", "172029.276000", "172029.279000", "172029.282000", "172029.285000", "172029.288000", "172029.291000", "172049.211000", "172049.214000", "172049.217000", "172049.220000", "172049.223000", "172049.226000", "172049.229000", "172049.232000", "172049.235000", "172049.238000", "172049.241000", "172049.244000", "172049.247000", "172049.250000", "172049.253000", "172049.256000", "172049.271000", "172049.273000", "172049.276000", "172049.279000", "172049.283000", "172049.285000", "172049.288000", "172049.291000", "172049.294000", "172049.297000", "172049.300000", "172049.303000", "172109.211000", "172109.214000", "172109.217000", "172109.220000", "172109.223000", "172109.226000", "172109.229000", "172109.232000", "172109.242000", "172109.245000", "172109.248000", "172109.251000", "172109.254000", "172109.257000", "172109.260000", "172109.263000", "172109.277000", "172109.280000", "172109.283000", "172109.286000", "172109.297000", "172109.300000", "172109.303000", "172109.306000", "172109.309000", "172109.312000", "172109.315000", "172109.318000", "172129.211000", "172129.214000", "172129.217000", "172129.220000", "172129.223000", "172129.226000", "172129.229000", "172129.232000", "172129.235000", "172129.238000", "172129.241000", "172129.244000", "172129.250000", "172129.256000", "172129.259000", "172129.262000", "172129.265000", "172129.268000", "172129.271000", "172129.274000", "172129.277000", "172129.280000", "172129.283000", "172129.286000", "172129.289000", "172129.292000", "172129.295000", "172129.298000", "172149.211000", "172149.214000", "172149.217000", "172149.220000", "172149.223000", "172149.226000", "172149.229000", "172149.232000", "172149.235000", "172149.238000", "172149.241000", "172149.244000", "172149.247000", "172149.250000", "172149.253000", "172149.256000", "172149.259000", "172149.262000", "172149.265000", "172149.268000", "172149.271000", "172149.273000", "172149.277000", "172149.280000", "172149.283000", "172149.285000", "172149.289000", "172150.519000", "172150.526000"],
      "InstanceCreationTime": ["171949.251000", "171949.254000", "171949.257000", "171949.260000", "171949.263000", "171949.266000", "171949.269000", "171949.272000", "171949.275000", "171949.278000", "171949.282000", "171949.285000", "171949.288000", "171949.290000", "171949.294000", "171949.297000", "171949.300000", "171949.303000", "171949.306000", "171949.309000", "171949.311000", "171949.314000", "172009.211000", "172009.223000", "172009.226000", "172009.229000", "172009.232000", "172009.235000", "172009.238000", "172009.241000", "172009.244000", "172009.247000", "172009.250000", "172009.260000", "172009.263000", "172009.266000", "172009.269000", "172009.272000", "172009.275000", "172009.278000", "172009.281000", "172009.284000", "172009.286000", "172009.290000", "172009.293000", "172009.295000", "172009.298000", "172009.301000", "172009.304000", "172009.307000", "172009.310000", "172029.211000", "172029.214000", "172029.217000", "172029.220000", "172029.223000", "172029.226000", "172029.229000", "172029.232000", "172029.235000", "172029.238000", "172029.241000", "172029.243000", "172029.247000", "172029.249000", "172029.252000", "172029.255000", "172029.258000", "172029.261000", "172029.264000", "172029.267000", "172029.270000", "172029.273000", "172029.276000", "172029.279000", "172029.282000", "172029.285000", "172029.288000", "172029.291000", "172049.211000", "172049.214000", "172049.217000", "172049.220000", "172049.223000", "172049.226000", "172049.229000", "172049.232000", "172049.235000", "172049.238000", "172049.241000", "172049.244000", "172049.247000", "172049.250000", "172049.253000", "172049.256000", "172049.271000", "172049.273000", "172049.276000", "172049.279000", "172049.283000", "172049.285000", "172049.288000", "172049.291000", "172049.294000", "172049.297000", "172049.300000", "172049.303000", "172109.211000", "172109.214000", "172109.217000", "172109.220000", "172109.223000", "172109.226000", "172109.229000", "172109.232000", "172109.242000", "172109.245000", "172109.248000", "172109.251000", "172109.254000", "172109.257000", "172109.260000", "172109.263000", "172109.277000", "172109.280000", "172109.283000", "172109.286000", "172109.297000", "172109.300000", "172109.303000", "172109.306000", "172109.309000", "172109.312000", "172109.315000", "172109.318000", "172129.211000", "172129.214000", "172129.217000", "172129.220000", "172129.223000", "172129.226000", "172129.229000", "172129.232000", "172129.235000", "172129.238000", "172129.241000", "172129.244000", "172129.250000", "172129.256000", "172129.259000", "172129.262000", "172129.265000", "172129.268000", "172129.271000", "172129.274000", "172129.277000", "172129.280000", "172129.283000", "172129.286000", "172129.289000", "172129.292000", "172129.295000", "172129.298000", "172149.211000", "172149.214000", "172149.217000", "172149.220000", "172149.223000", "172149.226000", "172149.229000", "172149.232000", "172149.235000", "172149.238000", "172149.241000", "172149.244000", "172149.247000", "172149.250000", "172149.253000", "172149.256000", "172149.259000", "172149.262000", "172149.265000", "172149.268000", "172149.271000", "172149.273000", "172149.277000", "172149.280000", "172149.283000", "172149.285000", "172149.289000", "172150.519000", "172150.526000"],
      "InstanceNumber": [1, 2, 3, 4, 5, 6, 7, 8, 9, 10, 11, 12, 13, 14, 15, 16, 17, 18, 19, 20, 21, 22, 23, 24, 25, 26, 27, 28, 29, 30, 31, 32, 33, 34, 35, 36, 37, 38, 39, 40, 41, 42, 43, 44, 45, 46, 47, 48, 49, 50, 51, 52, 53, 54, 55, 56, 57, 58, 59, 60, 61, 62, 63, 64, 65, 66, 67, 68, 69, 70, 71, 72, 73, 74, 75, 76, 77, 78, 79, 80, 81, 82, 83, 84, 85, 86, 87, 88, 89, 90, 91, 92, 93, 94, 95, 96, 97, 98, 99, 100, 101, 102, 103, 104, 105, 106, 107, 108, 109, 110, 111, 112, 113, 114, 115, 116, 117, 118, 119, 120, 121, 122, 123, 124, 125, 126, 127, 128, 129, 130, 131, 132, 133, 134, 135, 136, 137, 138, 139, 140, 141, 142, 143, 144, 145, 146, 147, 148, 149, 150, 151, 152, 153, 154, 155, 156, 157, 158, 159, 160, 161, 162, 163, 164, 165, 166, 167, 168, 169, 170, 171, 172, 173, 174, 175, 176, 177, 178, 179, 180, 181, 182, 183, 184, 185, 186, 187, 188, 189, 190, 191, 192],
      "LargestImagePixelValue": [32439, 32738, 34962, 40150, 34387, 31570, 30886, 31262, 31519, 38060, 34694, 31034, 32903, 30998, 30585, 30996, 32412, 32811, 36769, 38739, 35063, 34802, 33244, 32905, 30333, 31290, 32992, 37747, 41183, 40284, 38877, 39904, 40776, 34589, 37064, 35662, 38015, 34789, 36011, 40227, 40885, 38877, 38029, 36083, 33210, 33411, 36425, 38046, 33428, 34491, 30785, 34038, 37026, 33616, 32417, 33813, 36036, 32464, 33421, 33052, 31618, 31259, 32816, 35171, 37765, 31442, 32154, 30854, 30656, 31954, 31011, 30429, 30864, 31864, 36426, 34116, 33491, 32874, 31323, 30862, 31292, 31615, 31050, 29967, 30963, 35131, 32947, 33301, 33435, 34436, 32851, 32089, 32721, 32428, 31282, 33425, 33095, 31999, 32603, 39150, 34709, 32893, 39511, 36703, 34374, 38155, 39554, 41398, 34504, 34796, 35975, 37152, 41076, 40709, 40892, 41045, 34571, 36757, 33160, 35188, 37973, 37525, 36787, 36623, 32790, 34417, 34971, 33399, 32908, 30930, 30460, 33354, 40185, 34538, 31293, 33639, 37678, 36493, 32050, 30726, 30965, 32997, 30089, 31951, 33474, 35364, 33833, 33241, 30111, 31074, 34753, 32354, 31145, 29174, 30870, 34122, 30040, 30508, 31454, 29691, 29868, 36283, 37151, 33990, 32202, 29917, 31132, 31409, 32070, 32451, 32382, 32561, 32920, 32145, 31573, 31930, 33031, 33159, 33945, 33516, 34003, 37351, 37797, 36117, 37545, 35272, 35349, 32803, 32656, 34943, 33779, 34721],
      "WindowCenter": [9437.0, 9429.0, 9448.0, 9494.0, 9425.0, 9384.0, 9370.0, 9367.0, 9357.0, 9436.0, 9400.0, 9358.0, 9382.0, 9357.0, 9343.0, 9355.0, 9374.0, 9392.0, 9453.0, 9481.0, 9448.0, 9434.0, 9411.0, 9388.0, 9346.0, 9358.0, 9376.0, 9437.0, 9475.0, 9459.0, 9441.0, 9459.0, 9467.0, 9411.0, 9459.0, 9459.0, 9491.0, 9458.0, 9461.0, 9502.0, 9488.0, 9457.0, 9442.0, 9423.0, 9384.0, 9386.0, 9439.0, 9462.0, 9426.0, 9440.0, 9390.0, 9433.0, 9460.0, 9406.0, 9378.0, 9386.0, 9406.0, 9354.0, 9358.0, 9357.0, 9330.0, 9330.0, 9349.0, 9372.0, 9397.0, 9331.0, 9345.0, 9336.0, 9348.0, 9384.0, 9373.0, 9370.0, 9371.0, 9397.0, 9446.0, 9430.0, 9425.0, 9410.0, 9376.0, 9359.0, 9355.0, 9357.0, 9344.0, 9339.0, 9365.0, 9424.0, 9402.0, 9401.0, 9401.0, 9402.0, 9372.0, 9358.0, 9354.0, 9348.0, 9340.0, 9360.0, 9358.0, 9346.0, 9353.0, 9423.0, 9377.0, 9362.0, 9437.0, 9414.0, 9393.0, 9436.0, 9455.0, 9472.0, 9399.0, 9406.0, 9420.0, 9441.0, 9484.0, 9483.0, 9474.0, 9465.0, 9397.0, 9421.0, 9387.0, 9430.0, 9479.0, 9483.0, 9481.0, 9476.0, 9434.0, 9450.0, 9437.0, 9409.0, 9393.0, 9366.0, 9354.0, 9398.0, 9471.0, 9411.0, 9366.0, 9401.0, 9446.0, 9426.0, 9375.0, 9348.0, 9358.0, 9383.0, 9363.0, 9389.0, 9406.0, 9413.0, 9386.0, 9371.0, 9332.0, 9347.0, 9404.0, 9377.0, 9367.0, 9353.0, 9382.0, 9432.0, 9375.0, 9373.0, 9377.0, 9350.0, 9348.0, 9427.0, 9438.0, 9392.0, 9367.0, 9339.0, 9374.0, 9383.0, 9396.0, 9403.0, 9404.0, 9402.0, 9400.0, 9378.0, 9372.0, 9378.0, 9399.0, 9407.0, 9428.0, 9425.0, 9433.0, 9485.0, 9485.0, 9461.0, 9472.0, 9429.0, 9410.0, 9377.0, 9375.0, 9398.0, 9379.0, 9389.0],
      "WindowWidth": [20007.0, 19974.0, 19994.0, 20062.0, 19945.0, 19875.0, 19849.0, 19838.0, 19819.0, 19943.0, 19889.0, 19827.0, 19864.0, 19826.0, 19801.0, 19816.0, 19848.0, 19883.0, 19990.0, 20039.0, 19988.0, 19961.0, 19916.0, 19871.0, 19799.0, 19816.0, 19846.0, 19947.0, 20009.0, 19979.0, 19948.0, 19980.0, 19994.0, 19913.0, 20001.0, 20009.0, 20062.0, 20010.0, 20013.0, 20077.0, 20044.0, 19983.0, 19954.0, 19929.0, 19862.0, 19867.0, 19955.0, 19997.0, 19949.0, 19970.0, 19887.0, 19954.0, 19991.0, 19896.0, 19848.0, 19852.0, 19880.0, 19800.0, 19801.0, 19799.0, 19756.0, 19757.0, 19789.0, 19826.0, 19865.0, 19764.0, 19788.0, 19781.0, 19806.0, 19871.0, 19853.0, 19852.0, 19853.0, 19894.0, 19970.0, 19949.0, 19943.0, 19916.0, 19856.0, 19827.0, 19818.0, 19813.0, 19791.0, 19786.0, 19835.0, 19934.0, 19903.0, 19900.0, 19896.0, 19891.0, 19837.0, 19809.0, 19800.0, 19792.0, 19776.0, 19809.0, 19804.0, 19786.0, 19796.0, 19902.0, 19835.0, 19816.0, 19937.0, 19904.0, 19875.0, 19941.0, 19974.0, 19997.0, 19883.0, 19896.0, 19922.0, 19963.0, 20032.0, 20029.0, 20011.0, 19993.0, 19882.0, 19919.0, 19870.0, 19948.0, 20036.0, 20047.0, 20046.0, 20040.0, 19971.0, 19990.0, 19961.0, 19911.0, 19879.0, 19835.0, 19816.0, 19886.0, 19999.0, 19908.0, 19837.0, 19894.0, 19960.0, 19926.0, 19844.0, 19799.0, 19818.0, 19858.0, 19833.0, 19872.0, 19901.0, 19903.0, 19854.0, 19828.0, 19769.0, 19796.0, 19890.0, 19850.0, 19842.0, 19827.0, 19878.0, 19955.0, 19864.0, 19858.0, 19860.0, 19816.0, 19811.0, 19936.0, 19952.0, 19870.0, 19831.0, 19795.0, 19856.0, 19874.0, 19896.0, 19905.0, 19908.0, 19904.0, 19897.0, 19857.0, 19851.0, 19861.0, 19896.0, 19913.0, 19949.0, 19948.0, 19964.0, 20050.0, 20048.0, 20010.0, 20024.0, 19943.0, 19904.0, 19848.0, 19843.0, 19877.0, 19847.0, 19857.0]
    },
    "slices": {}
  },
  "NumberOfVolumes": 192
}