{
  "AcquisitionMatrixPE": 104,
  "AcquisitionNumber": 1,
  "AcquisitionTime": "17:26:6.567500",
  "BandwidthPerPixelPhaseEncode": 16.578,
  "BaseResolution": 104,
  "BodyPartExamined": "BRAIN",
  "ConsistencyInfo": "N4_VE11C_LATEST_20160120",
  "ConversionSoftware": "dcm2niix",
  "ConversionSoftwareVersion": "v1.0.20190902",
  "DerivedVendorReportedEchoSpacing": 0.000580009,
  "DeviceSerialNumber": "166018",
  "DwellTime": 2.1e-06,
  "EchoTime": 0.037,
  "EchoTrainLength": 104,
  "EffectiveEchoSpacing": 0.000580009,
  "FlipAngle": 68,
  "ImageComments": "Unaliased_MB6_PE3_LB",
  "ImageOrientationPatientDICOM": [0.997542, -0.0458307, 0.0529967, 0.0571685, 0.969709, -0.237478],
  "ImageType": [
    "ORIGINAL",
    "PRIMARY",
    "M",
    "MB",
    "ND",
    "MOSAIC"
],
  "ImagingFrequency": 123.191,
  "InPlanePhaseEncodingDirectionDICOM": "COL",
  "InstitutionAddress": "Washington_Place_6_NYC_NYC_US_10003",
  "InstitutionName": "NYU_-_CBI",
  "InstitutionalDepartmentName": "Department",
  "MRAcquisitionType": "2D",
  "MagneticFieldStrength": 3,
  "Manufacturer": "Siemens",
  "ManufacturersModelName": "Prisma",
  "Modality": "MR",
  "MultibandAccelerationFactor": 6,
  "PartialFourier": 1,
  "PatientPosition": "HFS",
  "PercentPhaseFOV": 100,
  "PhaseEncodingDirection": "j",
  "PhaseEncodingSteps": 104,
  "PhaseResolution": 1,
  "PixelBandwidth": 2290,
  "ProcedureStepDescription": "Investigators_Winawer",
  "ProtocolName": "cmrr_mbepi_s6_2mm_66sl_PA_TR1.0",
  "PulseSequenceDetails": "%CustomerSeq%_cmrr_mbep2d_bold",
  "ReceiveCoilActiveElements": "HC1-7",
  "ReceiveCoilName": "HeadNeck_64",
  "ReconMatrixPE": 104,
  "RepetitionTime": 1,
  "SAR": 0.0800726,
  "ScanOptions": "FS",
  "ScanningSequence": "EP",
  "SequenceName": "epfid2d1_104",
  "SequenceVariant": "SK_SS",
  "SeriesDescription": "cmrr_mbepi_s6_2mm_66sl_PA_TR1.0",
  "SeriesNumber": 30,
  "ShimSetting": [253, -12564, -8485, 467, -12, -184, -35, 8],
  "SliceThickness": 2,
  "SliceTiming": [0, 0.5325, 0.0875, 0.6225, 0.1775, 0.7125, 0.2675, 0.8, 0.355, 0.89, 0.445, 0, 0.5325, 0.0875, 0.6225, 0.1775, 0.7125, 0.2675, 0.8, 0.355, 0.89, 0.445, 0, 0.5325, 0.0875, 0.6225, 0.1775, 0.7125, 0.2675, 0.8, 0.355, 0.89, 0.445, 0, 0.5325, 0.0875, 0.6225, 0.1775, 0.7125, 0.2675, 0.8, 0.355, 0.89, 0.445, 0, 0.5325, 0.0875, 0.6225, 0.1775, 0.7125, 0.2675, 0.8, 0.355, 0.89, 0.445, 0, 0.5325, 0.0875, 0.6225, 0.1775, 0.7125, 0.2675, 0.8, 0.355, 0.89, 0.445],
  "SoftwareVersions": "syngo_MR_E11",
  "SpacingBetweenSlices": 2,
  "StationName": "AWP166018",
  "TaskName": "prf",
  "TotalReadoutTime": 0.0597409,
  "TxRefAmp": 250.804,
  "WipMemBlock": "ee634ab6-942a-4b10-b12b-f84276b4ac44||Sequence: ve11c/master r/ab69a6c; Apr 19 2017 09:47:47 by eja",
  "dcmmeta_affine": [
    [-1.9950848817825317, 0.1143370270729065, 0.08101527392864227, 105.4575424194336],
    [0.0916614681482315, 1.9394186735153198, -0.4798473119735718, -70.46788787841797],
    [0.10599342733621597, 0.4749550521373749, 1.9398925304412842, -82.23838806152344],
    [0.0, 0.0, 0.0, 1.0]
],
  "dcmmeta_reorient_transform": [
    [0.0, -1.0, 0.0, 103.0],
    [1.0, 0.0, 0.0, 0.0],
    [0.0, 0.0, 1.0, 0.0],
    [0.0, 0.0, 0.0, 1.0]
],
  "dcmmeta_shape": [104, 104, 66, 192],
  "dcmmeta_slice_dim": 2,
  "dcmmeta_version": 0.6,
  "global": {
    "const": {
      "AccessionNumber": "j6wfq5gm",
      "AcquisitionMatrix": [104, 0, 0, 104],
      "AngioFlag": "N",
      "BitsAllocated": 16,
      "BitsStored": 16,
      "BodyPartExamined": "BRAIN",
      "Columns": 936,
      "EchoNumbers": 1,
      "EchoTime": 37.0,
      "EchoTrainLength": 104,
      "FlipAngle": 68.0,
      "HighBit": 15,
      "ImageOrientationPatient": [0.99754242629366, -0.0458307346607, 0.05299671220584, 0.05716851489868, 0.96970933081106, -0.2374775244991],
      "ImagePositionPatient": [-994.75375629416, -897.95922448674, 120.17001961562],
      "ImageType": [
        "ORIGINAL",
        "PRIMARY",
        "M",
        "MB",
        "ND",
        "MOSAIC"
],
      "ImagedNucleus": "1H",
      "ImagingFrequency": 123.19134,
      "InPlanePhaseEncodingDirection": "COL",
      "MRAcquisitionType": "2D",
      "MagneticFieldStrength": 3.0,
      "Manufacturer": "SIEMENS",
      "ManufacturerModelName": "Prisma",
      "Modality": "MR",
      "NumberOfAverages": 1.0,
      "NumberOfPhaseEncodingSteps": 104,
      "PercentPhaseFieldOfView": 100.0,
      "PercentSampling": 100.0,
      "PerformedProcedureStepStartTime": "164024.304000",
      "PhotometricInterpretation": "MONOCHROME2",
      "PixelBandwidth": 2290.0,
      "PixelRepresentation": 0,
      "PixelSpacing": [2.0, 2.0],
      "ProtocolName": "cmrr_mbepi_s6_2mm_66sl_PA_TR1.0",
      "RepetitionTime": 1000.0,
      "Rows": 936,
      "SAR": 0.08007259547669,
      "SamplesPerPixel": 1,
      "ScanOptions": "FS",
      "ScanningSequence": "EP",
      "SequenceName": "epfid2d1_104",
      "SequenceVariant": [
        "SK",
        "SS"
],
      "SeriesDescription": "cmrr_mbepi_s6_2mm_66sl_PA_TR1.0",
      "SeriesNumber": 30,
      "SeriesTime": "172735.191000",
      "SliceLocation": -58.588067354977,
      "SliceThickness": 2.0,
      "SmallestImagePixelValue": 0,
      "SoftwareVersions": "syngo MR E11",
      "SpacingBetweenSlices": 2.0000000254267,
      "SpecificCharacterSet": "ISO_IR 100",
      "StudyID": "1",
      "StudyTime": "164024.247000",
      "TransmitCoilName": "Body",
      "VariableFlipAngleFlag": "N",
      "WindowCenterWidthExplanation": "Algo1",
      "dBdt": 0.0},
    "slices": {}
  },
  "time": {
    "samples": {
      "AcquisitionNumber": [1, 2, 3, 4, 5, 6, 7, 8, 9, 10, 11, 12, 13, 14, 15, 16, 17, 18, 19, 20, 21, 22, 23, 24, 25, 26, 27, 28, 29, 30, 31, 32, 33, 34, 35, 36, 37, 38, 39, 40, 41, 42, 43, 44, 45, 46, 47, 48, 49, 50, 51, 52, 53, 54, 55, 56, 57, 58, 59, 60, 61, 62, 63, 64, 65, 66, 67, 68, 69, 70, 71, 72, 73, 74, 75, 76, 77, 78, 79, 80, 81, 82, 83, 84, 85, 86, 87, 88, 89, 90, 91, 92, 93, 94, 95, 96, 97, 98, 99, 100, 101, 102, 103, 104, 105, 106, 107, 108, 109, 110, 111, 112, 113, 114, 115, 116, 117, 118, 119, 120, 121, 122, 123, 124, 125, 126, 127, 128, 129, 130, 131, 132, 133, 134, 135, 136, 137, 138, 139, 140, 141, 142, 143, 144, 145, 146, 147, 148, 149, 150, 151, 152, 153, 154, 155, 156, 157, 158, 159, 160, 161, 162, 163, 164, 165, 166, 167, 168, 169, 170, 171, 172, 173, 174, 175, 176, 177, 178, 179, 180, 181, 182, 183, 184, 185, 186, 187, 188, 189, 190, 191, 192],
      "AcquisitionTime": ["172606.567500", "172607.567500", "172608.567500", "172609.567500", "172610.567500", "172611.567500", "172612.567500", "172613.567500", "172614.567500", "172615.567500", "172616.567500", "172617.567500", "172618.567500", "172619.567500", "172620.567500", "172621.567500", "172622.567500", "172623.567500", "172624.567500", "172625.567500", "172626.567500", "172627.567500", "172628.567500", "172629.567500", "172630.567500", "172631.567500", "172632.567500", "172633.567500", "172634.567500", "172635.567500", "172636.567500", "172637.567500", "172638.567500", "172639.567500", "172640.567500", "172641.567500", "172642.567500", "172643.567500", "172644.567500", "172645.567500", "172646.567500", "172647.567500", "172648.567500", "172649.567500", "172650.567500", "172651.567500", "172652.567500", "172653.567500", "172654.567500", "172655.567500", "172656.567500", "172657.567500", "172658.567500", "172659.567500", "172700.567500", "172701.567500", "172702.567500", "172703.567500", "172704.567500", "172705.567500", "172706.567500", "172707.567500", "172708.567500", "172709.567500", "172710.567500", "172711.567500", "172712.567500", "172713.567500", "172714.567500", "172715.567500", "172716.567500", "172717.567500", "172718.567500", "172719.567500", "172720.567500", "172721.567500", "172722.567500", "172723.567500", "172724.567500", "172725.567500", "172726.567500", "172727.567500", "172728.567500", "172729.567500", "172730.567500", "172731.567500", "172732.567500", "172733.567500", "172734.567500", "172735.567500", "172736.567500", "172737.567500", "172738.567500", "172739.567500", "172740.567500", "172741.567500", "172742.567500", "172743.567500", "172744.567500", "172745.567500", "172746.567500", "172747.567500", "172748.567500", "172749.567500", "172750.567500", "172751.567500", "172752.567500", "172753.567500", "172754.567500", "172755.567500", "172756.567500", "172757.567500", "172758.567500", "172759.567500", "172800.567500", "172801.567500", "172802.567500", "172803.567500", "172804.567500", "172805.567500", "172806.567500", "172807.567500", "172808.567500", "172809.567500", "172810.567500", "172811.567500", "172812.567500", "172813.567500", "172814.567500", "172815.567500", "172816.567500", "172817.567500", "172818.567500", "172819.567500", "172820.567500", "172821.567500", "172822.567500", "172823.567500", "172824.567500", "172825.567500", "172826.567500", "172827.567500", "172828.567500", "172829.567500", "172830.567500", "172831.567500", "172832.567500", "172833.567500", "172834.567500", "172835.567500", "172836.567500", "172837.567500", "172838.567500", "172839.567500", "172840.567500", "172841.567500", "172842.567500", "172843.567500", "172844.567500", "172845.567500", "172846.567500", "172847.567500", "172848.567500", "172849.567500", "172850.567500", "172851.567500", "172852.567500", "172853.567500", "172854.567500", "172855.567500", "172856.567500", "172857.567500", "172858.567500", "172859.567500", "172900.567500", "172901.567500", "172902.567500", "172903.567500", "172904.567500", "172905.567500", "172906.567500", "172907.567500", "172908.567500", "172909.567500", "172910.567500", "172911.567500", "172912.567500", "172913.567500", "172914.567500", "172915.567500", "172916.567500", "172917.567500"],
      "ContentTime": ["172735.195000", "172735.200000", "172735.205000", "172735.209000", "172735.212000", "172735.215000", "172735.218000", "172735.221000", "172735.224000", "172735.227000", "172735.256000", "172735.259000", "172735.262000", "172735.265000", "172735.268000", "172735.271000", "172735.274000", "172735.277000", "172735.280000", "172735.283000", "172735.286000", "172735.289000", "172735.292000", "172735.295000", "172735.298000", "172735.301000", "172735.304000", "172735.307000", "172735.310000", "172735.313000", "172735.316000", "172735.318000", "172735.322000", "172735.325000", "172735.327000", "172735.330000", "172735.334000", "172735.336000", "172735.339000", "172735.342000", "172735.352000", "172735.355000", "172735.358000", "172735.360000", "172755.161000", "172755.164000", "172755.167000", "172755.170000", "172755.173000", "172755.176000", "172755.179000", "172755.182000", "172755.185000", "172755.188000", "172755.191000", "172755.194000", "172755.197000", "172755.200000", "172755.203000", "172755.206000", "172755.209000", "172755.212000", "172755.215000", "172755.218000", "172755.221000", "172755.224000", "172755.227000", "172755.230000", "172755.233000", "172755.236000", "172755.239000", "172755.242000", "172755.245000", "172815.161000", "172815.164000", "172815.167000", "172815.170000", "172815.173000", "172815.176000", "172815.179000", "172815.182000", "172815.185000", "172815.188000", "172815.191000", "172815.194000", "172815.197000", "172815.200000", "172815.203000", "172815.206000", "172815.209000", "172815.212000", "172815.215000", "172815.218000", "172815.221000", "172815.224000", "172815.227000", "172815.230000", "172815.233000", "172815.247000", "172815.251000", "172815.253000", "172835.161000", "172835.164000", "172835.167000", "172835.170000", "172835.173000", "172835.176000", "172835.179000", "172835.182000", "172835.185000", "172835.188000", "172835.191000", "172835.194000", "172835.197000", "172835.200000", "172835.203000", "172835.206000", "172835.209000", "172835.212000", "172835.215000", "172835.218000", "172835.221000", "172835.224000", "172835.227000", "172835.230000", "172835.233000", "172835.236000", "172835.239000", "172835.242000", "172855.161000", "172855.164000", "172855.167000", "172855.170000", "172855.180000", "172855.183000", "172855.186000", "172855.189000", "172855.192000", "172855.195000", "172855.198000", "172855.201000", "172855.204000", "172855.207000", "172855.210000", "172855.213000", "172855.216000", "172855.219000", "172855.222000", "172855.225000", "172855.228000", "172855.231000", "172855.234000", "172855.237000", "172855.240000", "172855.243000", "172855.245000", "172855.248000", "172855.251000", "172915.161000", "172915.164000", "172915.167000", "172915.170000", "172915.173000", "172915.176000", "172915.179000", "172915.182000", "172915.185000", "172915.188000", "172915.191000", "172915.194000", "172915.197000", "172915.200000", "172915.203000", "172915.206000", "172915.209000", "172915.212000", "172915.215000", "172915.218000", "172915.221000", "172915.224000", "172915.227000", "172915.230000", "172915.233000", "172915.236000", "172915.239000", "172915.242000", "172919.150000", "172919.154000", "172919.157000", "172919.161000", "172919.165000", "172919.168000"],
      "InstanceCreationTime": ["172735.195000", "172735.200000", "172735.205000", "172735.209000", "172735.212000", "172735.215000", "172735.218000", "172735.221000", "172735.224000", "172735.227000", "172735.256000", "172735.259000", "172735.262000", "172735.265000", "172735.268000", "172735.271000", "172735.274000", "172735.277000", "172735.280000", "172735.283000", "172735.286000", "172735.289000", "172735.292000", "172735.295000", "172735.298000", "172735.301000", "172735.304000", "172735.307000", "172735.310000", "172735.313000", "172735.316000", "172735.318000", "172735.322000", "172735.325000", "172735.327000", "172735.330000", "172735.334000", "172735.336000", "172735.339000", "172735.342000", "172735.352000", "172735.355000", "172735.358000", "172735.360000", "172755.161000", "172755.164000", "172755.167000", "172755.170000", "172755.173000", "172755.176000", "172755.179000", "172755.182000", "172755.185000", "172755.188000", "172755.191000", "172755.194000", "172755.197000", "172755.200000", "172755.203000", "172755.206000", "172755.209000", "172755.212000", "172755.215000", "172755.218000", "172755.221000", "172755.224000", "172755.227000", "172755.230000", "172755.233000", "172755.236000", "172755.239000", "172755.242000", "172755.245000", "172815.161000", "172815.164000", "172815.167000", "172815.170000", "172815.173000", "172815.176000", "172815.179000", "172815.182000", "172815.185000", "172815.188000", "172815.191000", "172815.194000", "172815.197000", "172815.200000", "172815.203000", "172815.206000", "172815.209000", "172815.212000", "172815.215000", "172815.218000", "172815.221000", "172815.224000", "172815.227000", "172815.230000", "172815.233000", "172815.247000", "172815.251000", "172815.253000", "172835.161000", "172835.164000", "172835.167000", "172835.170000", "172835.173000", "172835.176000", "172835.179000", "172835.182000", "172835.185000", "172835.188000", "172835.191000", "172835.194000", "172835.197000", "172835.200000", "172835.203000", "172835.206000", "172835.209000", "172835.212000", "172835.215000", "172835.218000", "172835.221000", "172835.224000", "172835.227000", "172835.230000", "172835.233000", "172835.236000", "172835.239000", "172835.242000", "172855.161000", "172855.164000", "172855.167000", "172855.170000", "172855.180000", "172855.183000", "172855.186000", "172855.189000", "172855.192000", "172855.195000", "172855.198000", "172855.201000", "172855.204000", "172855.207000", "172855.210000", "172855.213000", "172855.216000", "172855.219000", "172855.222000", "172855.225000", "172855.228000", "172855.231000", "172855.234000", "172855.237000", "172855.240000", "172855.243000", "172855.245000", "172855.248000", "172855.251000", "172915.161000", "172915.164000", "172915.167000", "172915.170000", "172915.173000", "172915.176000", "172915.179000", "172915.182000", "172915.185000", "172915.188000", "172915.191000", "172915.194000", "172915.197000", "172915.200000", "172915.203000", "172915.206000", "172915.209000", "172915.212000", "172915.215000", "172915.218000", "172915.221000", "172915.224000", "172915.227000", "172915.230000", "172915.233000", "172915.236000", "172915.239000", "172915.242000", "172919.150000", "172919.154000", "172919.157000", "172919.161000", "172919.165000", "172919.168000"],
      "InstanceNumber": [1, 2, 3, 4, 5, 6, 7, 8, 9, 10, 11, 12, 13, 14, 15, 16, 17, 18, 19, 20, 21, 22, 23, 24, 25, 26, 27, 28, 29, 30, 31, 32, 33, 34, 35, 36, 37, 38, 39, 40, 41, 42, 43, 44, 45, 46, 47, 48, 49, 50, 51, 52, 53, 54, 55, 56, 57, 58, 59, 60, 61, 62, 63, 64, 65, 66, 67, 68, 69, 70, 71, 72, 73, 74, 75, 76, 77, 78, 79, 80, 81, 82, 83, 84, 85, 86, 87, 88, 89, 90, 91, 92, 93, 94, 95, 96, 97, 98, 99, 100, 101, 102, 103, 104, 105, 106, 107, 108, 109, 110, 111, 112, 113, 114, 115, 116, 117, 118, 119, 120, 121, 122, 123, 124, 125, 126, 127, 128, 129, 130, 131, 132, 133, 134, 135, 136, 137, 138, 139, 140, 141, 142, 143, 144, 145, 146, 147, 148, 149, 150, 151, 152, 153, 154, 155, 156, 157, 158, 159, 160, 161, 162, 163, 164, 165, 166, 167, 168, 169, 170, 171, 172, 173, 174, 175, 176, 177, 178, 179, 180, 181, 182, 183, 184, 185, 186, 187, 188, 189, 190, 191, 192],
      "LargestImagePixelValue": [34153, 34125, 34992, 36279, 37481, 35084, 34631, 33170, 33739, 35425, 36951, 34711, 33204, 33775, 35113, 35755, 37684, 36981, 34536, 34217, 34695, 35356, 35185, 34645, 34387, 33986, 32727, 32955, 31492, 32579, 34052, 33157, 32244, 32355, 31905, 31983, 32724, 33824, 32618, 32572, 31470, 32326, 32457, 31696, 32083, 33168, 34117, 34204, 33487, 32989, 32441, 32439, 30770, 34830, 33494, 33033, 35513, 35456, 32900, 33601, 33116, 32890, 40428, 32992, 31348, 33111, 35051, 32310, 33631, 32750, 37241, 32390, 31866, 32381, 37115, 33118, 32671, 31954, 32601, 38760, 34017, 34656, 32606, 32621, 38118, 33536, 33428, 32772, 38140, 33427, 33540, 32175, 35520, 32957, 33933, 32102, 32209, 39027, 33253, 32517, 35131, 37121, 33757, 34369, 34211, 33412, 34627, 34982, 36026, 34308, 34137, 33582, 33537, 33643, 36403, 33734, 33211, 32575, 33822, 32552, 33554, 32969, 33598, 33095, 35061, 33906, 33167, 33847, 34762, 33902, 32717, 32538, 35372, 35051, 32273, 34193, 33256, 33192, 33233, 33102, 33664, 34246, 34052, 37292, 32307, 31181, 32429, 32740, 34184, 36096, 38247, 32252, 31824, 32158, 33598, 33630, 37286, 39058, 32469, 32427, 32127, 31991, 32243, 32685, 34581, 33427, 34272, 31510, 32203, 31781, 31919, 31829, 33138, 33720, 33408, 38370, 31485, 31839, 34031, 31590, 31835, 31948, 32877, 33468, 34118, 35170, 34041, 33657, 33218, 32891, 34300, 33157],
      "WindowCenter": [9463.0, 9437.0, 9424.0, 9439.0, 9449.0, 9425.0, 9410.0, 9390.0, 9391.0, 9421.0, 9432.0, 9406.0, 9387.0, 9397.0, 9435.0, 9460.0, 9486.0, 9481.0, 9434.0, 9422.0, 9412.0, 9413.0, 9397.0, 9389.0, 9390.0, 9392.0, 9382.0, 9390.0, 9382.0, 9394.0, 9412.0, 9408.0, 9404.0, 9406.0, 9409.0, 9409.0, 9415.0, 9425.0, 9413.0, 9412.0, 9394.0, 9407.0, 9405.0, 9383.0, 9379.0, 9388.0, 9391.0, 9391.0, 9386.0, 9390.0, 9389.0, 9399.0, 9383.0, 9441.0, 9423.0, 9399.0, 9418.0, 9416.0, 9378.0, 9389.0, 9377.0, 9378.0, 9461.0, 9376.0, 9357.0, 9376.0, 9407.0, 9368.0, 9381.0, 9377.0, 9432.0, 9380.0, 9384.0, 9391.0, 9453.0, 9402.0, 9397.0, 9382.0, 9388.0, 9462.0, 9406.0, 9412.0, 9388.0, 9388.0, 9454.0, 9391.0, 9399.0, 9388.0, 9456.0, 9400.0, 9408.0, 9390.0, 9426.0, 9395.0, 9415.0, 9384.0, 9390.0, 9464.0, 9403.0, 9398.0, 9438.0, 9467.0, 9429.0, 9434.0, 9425.0, 9412.0, 9422.0, 9428.0, 9440.0, 9415.0, 9416.0, 9410.0, 9412.0, 9411.0, 9442.0, 9410.0, 9403.0, 9390.0, 9409.0, 9396.0, 9403.0, 9398.0, 9411.0, 9400.0, 9421.0, 9403.0, 9396.0, 9402.0, 9415.0, 9412.0, 9410.0, 9421.0, 9462.0, 9462.0, 9418.0, 9434.0, 9420.0, 9410.0, 9407.0, 9407.0, 9412.0, 9418.0, 9418.0, 9456.0, 9395.0, 9383.0, 9398.0, 9411.0, 9412.0, 9436.0, 9459.0, 9383.0, 9371.0, 9377.0, 9405.0, 9405.0, 9456.0, 9475.0, 9395.0, 9395.0, 9389.0, 9388.0, 9387.0, 9392.0, 9417.0, 9414.0, 9427.0, 9392.0, 9404.0, 9391.0, 9394.0, 9380.0, 9398.0, 9402.0, 9396.0, 9459.0, 9381.0, 9389.0, 9421.0, 9391.0, 9389.0, 9387.0, 9399.0, 9404.0, 9411.0, 9431.0, 9429.0, 9431.0, 9426.0, 9428.0, 9449.0, 9438.0],
      "WindowWidth": [20046.0, 19977.0, 19941.0, 19963.0, 19974.0, 19936.0, 19909.0, 19875.0, 19876.0, 19925.0, 19940.0, 19896.0, 19867.0, 19887.0, 19959.0, 20008.0, 20053.0, 20044.0, 19964.0, 19937.0, 19913.0, 19907.0, 19875.0, 19863.0, 19868.0, 19873.0, 19859.0, 19877.0, 19871.0, 19888.0, 19915.0, 19912.0, 19910.0, 19918.0, 19926.0, 19927.0, 19934.0, 19947.0, 19926.0, 19926.0, 19898.0, 19918.0, 19912.0, 19869.0, 19855.0, 19867.0, 19866.0, 19865.0, 19861.0, 19874.0, 19877.0, 19901.0, 19879.0, 19971.0, 19941.0, 19893.0, 19916.0, 19909.0, 19846.0, 19863.0, 19843.0, 19850.0, 19977.0, 19846.0, 19817.0, 19845.0, 19895.0, 19831.0, 19853.0, 19845.0, 19934.0, 19857.0, 19866.0, 19880.0, 19977.0, 19892.0, 19887.0, 19860.0, 19867.0, 19988.0, 19898.0, 19909.0, 19870.0, 19869.0, 19975.0, 19872.0, 19888.0, 19872.0, 19982.0, 19891.0, 19905.0, 19875.0, 19931.0, 19881.0, 19914.0, 19865.0, 19873.0, 19991.0, 19895.0, 19889.0, 19956.0, 20006.0, 19946.0, 19952.0, 19935.0, 19913.0, 19926.0, 19936.0, 19956.0, 19915.0, 19919.0, 19912.0, 19915.0, 19916.0, 19963.0, 19911.0, 19897.0, 19875.0, 19906.0, 19881.0, 19896.0, 19887.0, 19907.0, 19893.0, 19923.0, 19894.0, 19881.0, 19889.0, 19911.0, 19910.0, 19915.0, 19940.0, 20010.0, 20010.0, 19940.0, 19959.0, 19932.0, 19914.0, 19905.0, 19903.0, 19910.0, 19920.0, 19921.0, 19983.0, 19886.0, 19871.0, 19896.0, 19919.0, 19914.0, 19949.0, 19984.0, 19862.0, 19843.0, 19852.0, 19900.0, 19905.0, 19986.0, 20019.0, 19892.0, 19893.0, 19883.0, 19878.0, 19876.0, 19883.0, 19923.0, 19920.0, 19941.0, 19887.0, 19906.0, 19881.0, 19884.0, 19860.0, 19884.0, 19889.0, 19882.0, 19982.0, 19863.0, 19880.0, 19932.0, 19884.0, 19879.0, 19874.0, 19891.0, 19900.0, 19913.0, 19951.0, 19953.0, 19957.0, 19952.0, 19958.0, 19991.0, 19975.0]
    },
    "slices": {}
  },
  "NumberOfVolumes": 192
}