{
  "aor": 0.0008109375,
  "aqi": 0.0059727093749999995,
  "bids_meta": {
    "AcquisitionMatrixPE": 104,
    "AcquisitionNumber": 1,
    "AcquisitionTime": "09:22:44.472500",
    "BandwidthPerPixelPhaseEncode": 16.578,
    "BaseResolution": 104,
    "BodyPartExamined": "BRAIN",
    "CogAtlasID": "TODO",
    "ConsistencyInfo": "N4_VE11C_LATEST_20160120",
    "ConversionSoftware": "dcm2niix",
    "ConversionSoftwareVersion": "v1.0.20190902",
    "DerivedVendorReportedEchoSpacing": 0.000580009,
    "DeviceSerialNumber": "166018",
    "DwellTime": 2.1e-06,
    "EchoTime": 0.037,
    "EchoTrainLength": 104,
    "EffectiveEchoSpacing": 0.000580009,
    "FlipAngle": 68,
    "ImageComments": "Unaliased_MB6_PE3_LB",
    "ImageOrientationPatientDICOM": [
      0.996205,
      0.0856026,
      0.0157656,
      -0.0740308,
      0.928536,
      -0.363786
    ],
    "ImageType": [
      "ORIGINAL",
      "PRIMARY",
      "M",
      "MB",
      "ND",
      "MOSAIC"
    ],
    "ImagingFrequency": 123.191,
    "InPlanePhaseEncodingDirectionDICOM": "COL",
    "InstitutionAddress": "Washington_Place_6_NYC_NYC_US_10003",
    "InstitutionName": "NYU_-_CBI",
    "InstitutionalDepartmentName": "Department",
    "MRAcquisitionType": "2D",
    "MagneticFieldStrength": 3,
    "Manufacturer": "Siemens",
    "ManufacturersModelName": "Prisma",
    "Modality": "MR",
    "MultibandAccelerationFactor": 6,
    "NumberOfVolumes": 192,
    "PartialFourier": 1,
    "PatientPosition": "HFS",
    "PercentPhaseFOV": 100,
    "PhaseEncodingDirection": "j",
    "PhaseEncodingSteps": 104,
    "PhaseResolution": 1,
    "PixelBandwidth": 2290,
    "ProcedureStepDescription": "Investigators_Winawer",
    "ProtocolName": "cmrr_mbepi_s6_2mm_66sl_PA_task-prf",
    "PulseSequenceDetails": "%CustomerSeq%_cmrr_mbep2d_bold",
    "ReceiveCoilActiveElements": "HC1-7",
    "ReceiveCoilName": "HeadNeck_64",
    "ReconMatrixPE": 104,
    "RepetitionTime": 1,
    "SAR": 0.068692,
    "ScanOptions": "FS",
    "ScanningSequence": "EP",
    "SequenceName": "epfid2d1_104",
    "SequenceVariant": "SK_SS",
    "SeriesDescription": "cmrr_mbepi_s6_2mm_66sl_PA_task-prf",
    "SeriesNumber": 12,
    "ShimSetting": [
      253,
      -12562,
      -8457,
      379,
      -116,
      32,
      -112,
      52
    ],
    "SliceThickness": 2,
    "SliceTiming": [
      0,
      0.5325,
      0.0875,
      0.6225,
      0.1775,
      0.7125,
      0.2675,
      0.8,
      0.355,
      0.89,
      0.445,
      0,
      0.5325,
      0.0875,
      0.6225,
      0.1775,
      0.7125,
      0.2675,
      0.8,
      0.355,
      0.89,
      0.445,
      0,
      0.5325,
      0.0875,
      0.6225,
      0.1775,
      0.7125,
      0.2675,
      0.8,
      0.355,
      0.89,
      0.445,
      0,
      0.5325,
      0.0875,
      0.6225,
      0.1775,
      0.7125,
      0.2675,
      0.8,
      0.355,
      0.89,
      0.445,
      0,
      0.5325,
      0.0875,
      0.6225,
      0.1775,
      0.7125,
      0.2675,
      0.8,
      0.355,
      0.89,
      0.445,
      0,
      0.5325,
      0.0875,
      0.6225,
      0.1775,
      0.7125,
      0.2675,
      0.8,
      0.355,
      0.89,
      0.445
    ],
    "SoftwareVersions": "syngo_MR_E11",
    "SpacingBetweenSlices": 2,
    "StationName": "AWP166018",
    "TaskName": "prf",
    "TotalReadoutTime": 0.0597409,
    "TxRefAmp": 221.385,
    "WipMemBlock": "7378edc6-d062-4cc0-82ac-462082a2613c||Sequence: R016 ve11c/master r/8780670; Nov 27 2017 15:05:12 by eja",
    "acq_id": "PA",
    "dataset": "unknown",
    "dcmmeta_affine": [
      [
        -1.9924092292785645,
        -0.14806151390075684,
        0.09155989438295364,
        115.22147369384766
      ],
      [
        -0.17120517790317535,
        1.857072114944458,
        -0.7224763035774231,
        -54.160823822021484
      ],
      [
        0.0315311923623085,
        0.727571964263916,
        1.8626983165740967,
        -87.12887573242188
      ],
      [
        0.0,
        0.0,
        0.0,
        1.0
      ]
    ],
    "dcmmeta_reorient_transform": [
      [
        0.0,
        -1.0,
        0.0,
        103.0
      ],
      [
        1.0,
        0.0,
        0.0,
        0.0
      ],
      [
        0.0,
        0.0,
        1.0,
        0.0
      ],
      [
        0.0,
        0.0,
        0.0,
        1.0
      ]
    ],
    "dcmmeta_shape": [
      104,
      104,
      66,
      192
    ],
    "dcmmeta_slice_dim": 2,
    "dcmmeta_version": 0.6,
    "global": {
      "const": {
        "AccessionNumber": "JU9RZJEV",
        "AcquisitionMatrix": [
          104,
          0,
          0,
          104
        ],
        "AngioFlag": "N",
        "BitsAllocated": 16,
        "BitsStored": 16,
        "BodyPartExamined": "BRAIN",
        "Columns": 936,
        "EchoNumbers": 1,
        "EchoTime": 37.0,
        "EchoTrainLength": 104,
        "FlipAngle": 68.0,
        "HighBit": 15,
        "ImageOrientationPatient": [
          0.99620461906818,
          0.08560258718834,
          0.01576559589405,
          -0.0740307604653,
          0.92853605273638,
          -0.3637859882866
        ],
        "ImagePositionPatient": [
          -867.21978845316,
          -980.88095324883,
          277.36400393594
        ],
        "ImageType": [
          "ORIGINAL",
          "PRIMARY",
          "M",
          "MB",
          "ND",
          "MOSAIC"
        ],
        "ImagedNucleus": "1H",
        "ImagingFrequency": 123.191016,
        "InPlanePhaseEncodingDirection": "COL",
        "MRAcquisitionType": "2D",
        "MagneticFieldStrength": 3.0,
        "Manufacturer": "SIEMENS",
        "ManufacturerModelName": "Prisma",
        "Modality": "MR",
        "NumberOfAverages": 1.0,
        "NumberOfPhaseEncodingSteps": 104,
        "PercentPhaseFieldOfView": 100.0,
        "PercentSampling": 100.0,
        "PerformedProcedureStepStartTime": "085101.370000",
        "PhotometricInterpretation": "MONOCHROME2",
        "PixelBandwidth": 2290.0,
        "PixelRepresentation": 0,
        "PixelSpacing": [
          2.0,
          2.0
        ],
        "ProtocolName": "cmrr_mbepi_s6_2mm_66sl_PA_task-prf",
        "RepetitionTime": 1000.0,
        "Rows": 936,
        "SAR": 0.06869203088308,
        "SamplesPerPixel": 1,
        "ScanOptions": "FS",
        "ScanningSequence": "EP",
        "SequenceName": "epfid2d1_104",
        "SequenceVariant": [
          "SK",
          "SS"
        ],
        "SeriesDescription": "cmrr_mbepi_s6_2mm_66sl_PA_task-prf",
        "SeriesNumber": 12,
        "SeriesTime": "092345.123000",
        "SliceLocation": -56.307615263165,
        "SliceThickness": 2.0,
        "SmallestImagePixelValue": 0,
        "SoftwareVersions": "syngo MR E11",
        "SpacingBetweenSlices": 2.0000000386761,
        "SpecificCharacterSet": "ISO_IR 100",
        "StudyID": "1",
        "StudyTime": "085101.165000",
        "TransmitCoilName": "Body",
        "VariableFlipAngleFlag": "N",
        "WindowCenterWidthExplanation": "Algo1",
        "dBdt": 0.0
      },
      "slices": {}
    },
    "modality": "bold",
    "run_id": 3,
    "session_id": "nyu3t01",
    "subject_id": "wlsubj076",
    "task_id": "prf",
    "time": {
      "samples": {
        "AcquisitionNumber": [
          1,
          2,
          3,
          4,
          5,
          6,
          7,
          8,
          9,
          10,
          11,
          12,
          13,
          14,
          15,
          16,
          17,
          18,
          19,
          20,
          21,
          22,
          23,
          24,
          25,
          26,
          27,
          28,
          29,
          30,
          31,
          32,
          33,
          34,
          35,
          36,
          37,
          38,
          39,
          40,
          41,
          42,
          43,
          44,
          45,
          46,
          47,
          48,
          49,
          50,
          51,
          52,
          53,
          54,
          55,
          56,
          57,
          58,
          59,
          60,
          61,
          62,
          63,
          64,
          65,
          66,
          67,
          68,
          69,
          70,
          71,
          72,
          73,
          74,
          75,
          76,
          77,
          78,
          79,
          80,
          81,
          82,
          83,
          84,
          85,
          86,
          87,
          88,
          89,
          90,
          91,
          92,
          93,
          94,
          95,
          96,
          97,
          98,
          99,
          100,
          101,
          102,
          103,
          104,
          105,
          106,
          107,
          108,
          109,
          110,
          111,
          112,
          113,
          114,
          115,
          116,
          117,
          118,
          119,
          120,
          121,
          122,
          123,
          124,
          125,
          126,
          127,
          128,
          129,
          130,
          131,
          132,
          133,
          134,
          135,
          136,
          137,
          138,
          139,
          140,
          141,
          142,
          143,
          144,
          145,
          146,
          147,
          148,
          149,
          150,
          151,
          152,
          153,
          154,
          155,
          156,
          157,
          158,
          159,
          160,
          161,
          162,
          163,
          164,
          165,
          166,
          167,
          168,
          169,
          170,
          171,
          172,
          173,
          174,
          175,
          176,
          177,
          178,
          179,
          180,
          181,
          182,
          183,
          184,
          185,
          186,
          187,
          188,
          189,
          190,
          191,
          192
        ],
        "AcquisitionTime": [
          "092244.472500",
          "092245.472500",
          "092246.472500",
          "092247.472500",
          "092248.472500",
          "092249.472500",
          "092250.472500",
          "092251.472500",
          "092252.472500",
          "092253.472500",
          "092254.472500",
          "092255.472500",
          "092256.472500",
          "092257.472500",
          "092258.472500",
          "092259.472500",
          "092300.472500",
          "092301.472500",
          "092302.472500",
          "092303.472500",
          "092304.472500",
          "092305.472500",
          "092306.472500",
          "092307.472500",
          "092308.472500",
          "092309.472500",
          "092310.472500",
          "092311.472500",
          "092312.472500",
          "092313.472500",
          "092314.472500",
          "092315.472500",
          "092316.472500",
          "092317.472500",
          "092318.472500",
          "092319.472500",
          "092320.472500",
          "092321.472500",
          "092322.472500",
          "092323.472500",
          "092324.472500",
          "092325.472500",
          "092326.472500",
          "092327.472500",
          "092328.472500",
          "092329.472500",
          "092330.472500",
          "092331.472500",
          "092332.472500",
          "092333.472500",
          "092334.472500",
          "092335.472500",
          "092336.472500",
          "092337.472500",
          "092338.472500",
          "092339.472500",
          "092340.472500",
          "092341.472500",
          "092342.472500",
          "092343.472500",
          "092344.472500",
          "092345.472500",
          "092346.472500",
          "092347.472500",
          "092348.472500",
          "092349.472500",
          "092350.472500",
          "092351.472500",
          "092352.472500",
          "092353.472500",
          "092354.472500",
          "092355.472500",
          "092356.472500",
          "092357.472500",
          "092358.472500",
          "092359.472500",
          "092400.472500",
          "092401.472500",
          "092402.472500",
          "092403.472500",
          "092404.472500",
          "092405.472500",
          "092406.472500",
          "092407.472500",
          "092408.472500",
          "092409.472500",
          "092410.472500",
          "092411.472500",
          "092412.472500",
          "092413.472500",
          "092414.472500",
          "092415.472500",
          "092416.472500",
          "092417.472500",
          "092418.472500",
          "092419.472500",
          "092420.472500",
          "092421.472500",
          "092422.472500",
          "092423.472500",
          "092424.472500",
          "092425.472500",
          "092426.472500",
          "092427.472500",
          "092428.472500",
          "092429.472500",
          "092430.472500",
          "092431.472500",
          "092432.472500",
          "092433.472500",
          "092434.472500",
          "092435.472500",
          "092436.472500",
          "092437.472500",
          "092438.472500",
          "092439.472500",
          "092440.472500",
          "092441.472500",
          "092442.472500",
          "092443.472500",
          "092444.472500",
          "092445.472500",
          "092446.472500",
          "092447.472500",
          "092448.472500",
          "092449.472500",
          "092450.472500",
          "092451.472500",
          "092452.472500",
          "092453.472500",
          "092454.472500",
          "092455.472500",
          "092456.472500",
          "092457.472500",
          "092458.472500",
          "092459.472500",
          "092500.472500",
          "092501.472500",
          "092502.472500",
          "092503.472500",
          "092504.472500",
          "092505.472500",
          "092506.472500",
          "092507.472500",
          "092508.472500",
          "092509.472500",
          "092510.472500",
          "092511.472500",
          "092512.472500",
          "092513.472500",
          "092514.472500",
          "092515.472500",
          "092516.472500",
          "092517.472500",
          "092518.472500",
          "092519.472500",
          "092520.472500",
          "092521.472500",
          "092522.472500",
          "092523.472500",
          "092524.472500",
          "092525.472500",
          "092526.472500",
          "092527.472500",
          "092528.472500",
          "092529.472500",
          "092530.472500",
          "092531.472500",
          "092532.472500",
          "092533.472500",
          "092534.472500",
          "092535.472500",
          "092536.472500",
          "092537.472500",
          "092538.472500",
          "092539.472500",
          "092540.472500",
          "092541.472500",
          "092542.472500",
          "092543.472500",
          "092544.472500",
          "092545.472500",
          "092546.472500",
          "092547.472500",
          "092548.472500",
          "092549.472500",
          "092550.472500",
          "092551.472500",
          "092552.472500",
          "092553.472500",
          "092554.472500",
          "092555.472500"
        ],
        "ContentTime": [
          "092345.125000",
          "092345.129000",
          "092345.132000",
          "092345.135000",
          "092345.139000",
          "092350.079000",
          "092350.082000",
          "092350.091000",
          "092350.094000",
          "092350.097000",
          "092350.100000",
          "092350.103000",
          "092355.079000",
          "092355.095000",
          "092355.098000",
          "092355.101000",
          "092355.104000",
          "092355.107000",
          "092355.110000",
          "092400.080000",
          "092400.083000",
          "092400.086000",
          "092400.089000",
          "092400.102000",
          "092400.105000",
          "092400.108000",
          "092405.079000",
          "092405.082000",
          "092405.085000",
          "092405.088000",
          "092405.091000",
          "092405.094000",
          "092405.097000",
          "092405.100000",
          "092410.079000",
          "092410.082000",
          "092410.085000",
          "092410.088000",
          "092410.091000",
          "092410.094000",
          "092410.097000",
          "092415.079000",
          "092415.082000",
          "092415.085000",
          "092415.088000",
          "092415.091000",
          "092415.094000",
          "092415.097000",
          "092420.079000",
          "092420.082000",
          "092420.085000",
          "092420.088000",
          "092420.091000",
          "092420.094000",
          "092420.097000",
          "092425.079000",
          "092425.082000",
          "092425.085000",
          "092425.088000",
          "092425.091000",
          "092425.094000",
          "092425.105000",
          "092430.079000",
          "092430.082000",
          "092430.085000",
          "092430.088000",
          "092430.091000",
          "092430.094000",
          "092430.097000",
          "092435.080000",
          "092435.083000",
          "092435.086000",
          "092435.089000",
          "092435.092000",
          "092435.095000",
          "092435.098000",
          "092440.079000",
          "092440.082000",
          "092440.085000",
          "092440.088000",
          "092440.091000",
          "092440.094000",
          "092440.097000",
          "092445.079000",
          "092445.082000",
          "092445.085000",
          "092445.088000",
          "092445.091000",
          "092445.094000",
          "092445.097000",
          "092450.079000",
          "092450.082000",
          "092450.085000",
          "092450.088000",
          "092450.091000",
          "092450.094000",
          "092450.097000",
          "092455.079000",
          "092455.082000",
          "092455.085000",
          "092455.088000",
          "092455.091000",
          "092455.094000",
          "092455.102000",
          "092500.079000",
          "092500.082000",
          "092500.085000",
          "092500.088000",
          "092500.091000",
          "092500.094000",
          "092500.111000",
          "092505.079000",
          "092505.082000",
          "092505.085000",
          "092505.088000",
          "092505.091000",
          "092505.094000",
          "092505.097000",
          "092510.080000",
          "092510.083000",
          "092510.086000",
          "092510.089000",
          "092510.092000",
          "092510.095000",
          "092510.098000",
          "092515.079000",
          "092515.082000",
          "092515.085000",
          "092515.088000",
          "092515.099000",
          "092515.102000",
          "092515.105000",
          "092520.079000",
          "092520.082000",
          "092520.085000",
          "092520.088000",
          "092520.091000",
          "092520.094000",
          "092520.097000",
          "092525.079000",
          "092525.082000",
          "092525.085000",
          "092525.088000",
          "092525.091000",
          "092525.094000",
          "092525.097000",
          "092530.079000",
          "092530.082000",
          "092530.085000",
          "092530.088000",
          "092530.091000",
          "092530.094000",
          "092530.097000",
          "092535.079000",
          "092535.082000",
          "092535.085000",
          "092535.088000",
          "092535.091000",
          "092535.094000",
          "092535.097000",
          "092540.079000",
          "092540.082000",
          "092540.085000",
          "092540.088000",
          "092540.091000",
          "092540.094000",
          "092540.097000",
          "092545.080000",
          "092545.083000",
          "092545.086000",
          "092545.089000",
          "092545.092000",
          "092545.095000",
          "092545.098000",
          "092550.079000",
          "092550.082000",
          "092550.085000",
          "092550.088000",
          "092550.091000",
          "092550.094000",
          "092550.097000",
          "092550.100000",
          "092555.079000",
          "092555.082000",
          "092555.085000",
          "092555.088000",
          "092555.091000",
          "092555.094000",
          "092555.097000",
          "092557.439000",
          "092557.442000",
          "092557.445000"
        ],
        "InstanceCreationTime": [
          "092345.125000",
          "092345.129000",
          "092345.132000",
          "092345.135000",
          "092345.139000",
          "092350.079000",
          "092350.082000",
          "092350.091000",
          "092350.094000",
          "092350.097000",
          "092350.100000",
          "092350.103000",
          "092355.079000",
          "092355.095000",
          "092355.098000",
          "092355.101000",
          "092355.104000",
          "092355.107000",
          "092355.110000",
          "092400.080000",
          "092400.083000",
          "092400.086000",
          "092400.089000",
          "092400.102000",
          "092400.105000",
          "092400.108000",
          "092405.079000",
          "092405.082000",
          "092405.085000",
          "092405.088000",
          "092405.091000",
          "092405.094000",
          "092405.097000",
          "092405.100000",
          "092410.079000",
          "092410.082000",
          "092410.085000",
          "092410.088000",
          "092410.091000",
          "092410.094000",
          "092410.097000",
          "092415.079000",
          "092415.082000",
          "092415.085000",
          "092415.088000",
          "092415.091000",
          "092415.094000",
          "092415.097000",
          "092420.079000",
          "092420.082000",
          "092420.085000",
          "092420.088000",
          "092420.091000",
          "092420.094000",
          "092420.097000",
          "092425.079000",
          "092425.082000",
          "092425.085000",
          "092425.088000",
          "092425.091000",
          "092425.094000",
          "092425.105000",
          "092430.079000",
          "092430.082000",
          "092430.085000",
          "092430.088000",
          "092430.091000",
          "092430.094000",
          "092430.097000",
          "092435.080000",
          "092435.083000",
          "092435.086000",
          "092435.089000",
          "092435.092000",
          "092435.095000",
          "092435.098000",
          "092440.079000",
          "092440.082000",
          "092440.085000",
          "092440.088000",
          "092440.091000",
          "092440.094000",
          "092440.097000",
          "092445.079000",
          "092445.082000",
          "092445.085000",
          "092445.088000",
          "092445.091000",
          "092445.094000",
          "092445.097000",
          "092450.079000",
          "092450.082000",
          "092450.085000",
          "092450.088000",
          "092450.091000",
          "092450.094000",
          "092450.097000",
          "092455.079000",
          "092455.082000",
          "092455.085000",
          "092455.088000",
          "092455.091000",
          "092455.094000",
          "092455.102000",
          "092500.079000",
          "092500.082000",
          "092500.085000",
          "092500.088000",
          "092500.091000",
          "092500.094000",
          "092500.111000",
          "092505.079000",
          "092505.082000",
          "092505.085000",
          "092505.088000",
          "092505.091000",
          "092505.094000",
          "092505.097000",
          "092510.080000",
          "092510.083000",
          "092510.086000",
          "092510.089000",
          "092510.092000",
          "092510.095000",
          "092510.098000",
          "092515.079000",
          "092515.082000",
          "092515.085000",
          "092515.088000",
          "092515.099000",
          "092515.102000",
          "092515.105000",
          "092520.079000",
          "092520.082000",
          "092520.085000",
          "092520.088000",
          "092520.091000",
          "092520.094000",
          "092520.097000",
          "092525.079000",
          "092525.082000",
          "092525.085000",
          "092525.088000",
          "092525.091000",
          "092525.094000",
          "092525.097000",
          "092530.079000",
          "092530.082000",
          "092530.085000",
          "092530.088000",
          "092530.091000",
          "092530.094000",
          "092530.097000",
          "092535.079000",
          "092535.082000",
          "092535.085000",
          "092535.088000",
          "092535.091000",
          "092535.094000",
          "092535.097000",
          "092540.079000",
          "092540.082000",
          "092540.085000",
          "092540.088000",
          "092540.091000",
          "092540.094000",
          "092540.097000",
          "092545.080000",
          "092545.083000",
          "092545.086000",
          "092545.089000",
          "092545.092000",
          "092545.095000",
          "092545.098000",
          "092550.079000",
          "092550.082000",
          "092550.085000",
          "092550.088000",
          "092550.091000",
          "092550.094000",
          "092550.097000",
          "092550.100000",
          "092555.079000",
          "092555.082000",
          "092555.085000",
          "092555.088000",
          "092555.091000",
          "092555.094000",
          "092555.097000",
          "092557.439000",
          "092557.442000",
          "092557.445000"
        ],
        "InstanceNumber": [
          1,
          2,
          3,
          4,
          5,
          6,
          7,
          8,
          9,
          10,
          11,
          12,
          13,
          14,
          15,
          16,
          17,
          18,
          19,
          20,
          21,
          22,
          23,
          24,
          25,
          26,
          27,
          28,
          29,
          30,
          31,
          32,
          33,
          34,
          35,
          36,
          37,
          38,
          39,
          40,
          41,
          42,
          43,
          44,
          45,
          46,
          47,
          48,
          49,
          50,
          51,
          52,
          53,
          54,
          55,
          56,
          57,
          58,
          59,
          60,
          61,
          62,
          63,
          64,
          65,
          66,
          67,
          68,
          69,
          70,
          71,
          72,
          73,
          74,
          75,
          76,
          77,
          78,
          79,
          80,
          81,
          82,
          83,
          84,
          85,
          86,
          87,
          88,
          89,
          90,
          91,
          92,
          93,
          94,
          95,
          96,
          97,
          98,
          99,
          100,
          101,
          102,
          103,
          104,
          105,
          106,
          107,
          108,
          109,
          110,
          111,
          112,
          113,
          114,
          115,
          116,
          117,
          118,
          119,
          120,
          121,
          122,
          123,
          124,
          125,
          126,
          127,
          128,
          129,
          130,
          131,
          132,
          133,
          134,
          135,
          136,
          137,
          138,
          139,
          140,
          141,
          142,
          143,
          144,
          145,
          146,
          147,
          148,
          149,
          150,
          151,
          152,
          153,
          154,
          155,
          156,
          157,
          158,
          159,
          160,
          161,
          162,
          163,
          164,
          165,
          166,
          167,
          168,
          169,
          170,
          171,
          172,
          173,
          174,
          175,
          176,
          177,
          178,
          179,
          180,
          181,
          182,
          183,
          184,
          185,
          186,
          187,
          188,
          189,
          190,
          191,
          192
        ],
        "LargestImagePixelValue": [
          33826,
          32760,
          32834,
          32511,
          33039,
          33027,
          32868,
          32639,
          32473,
          32947,
          32106,
          31937,
          33141,
          32868,
          32645,
          32392,
          32012,
          32347,
          32495,
          31699,
          32019,
          31959,
          32387,
          32937,
          32982,
          32747,
          32740,
          32723,
          32613,
          32314,
          32401,
          32618,
          32242,
          32657,
          31934,
          32031,
          31874,
          32240,
          32526,
          32585,
          32532,
          32347,
          32504,
          32615,
          32754,
          32672,
          32470,
          32370,
          32115,
          31923,
          32111,
          33139,
          33140,
          32705,
          32423,
          32741,
          32402,
          31695,
          32672,
          32853,
          32842,
          32253,
          32510,
          32020,
          32594,
          32192,
          31863,
          32895,
          33164,
          32828,
          32719,
          32260,
          33166,
          32239,
          31889,
          32822,
          32717,
          32824,
          32778,
          32633,
          32677,
          32851,
          32480,
