{
  "aor": 0.0013059375,
  "aqi": 0.007984965052083333,
  "bids_meta": {
    "AcquisitionMatrixPE": 104,
    "AcquisitionNumber": 1,
    "AcquisitionTime": "09:19:0.462500",
    "BandwidthPerPixelPhaseEncode": 16.578,
    "BaseResolution": 104,
    "BodyPartExamined": "BRAIN",
    "CogAtlasID": "TODO",
    "ConsistencyInfo": "N4_VE11C_LATEST_20160120",
    "ConversionSoftware": "dcm2niix",
    "ConversionSoftwareVersion": "v1.0.20190902",
    "DerivedVendorReportedEchoSpacing": 0.000580009,
    "DeviceSerialNumber": "166018",
    "DwellTime": 2.1e-06,
    "EchoTime": 0.037,
    "EchoTrainLength": 104,
    "EffectiveEchoSpacing": 0.000580009,
    "FlipAngle": 68,
    "ImageComments": "Unaliased_MB6_PE3_LB",
    "ImageOrientationPatientDICOM": [
      0.996205,
      0.0856026,
      0.0157656,
      -0.0740308,
      0.928536,
      -0.363786
    ],
    "ImageType": [
      "ORIGINAL",
      "PRIMARY",
      "M",
      "MB",
      "ND",
      "MOSAIC"
    ],
    "ImagingFrequency": 123.191,
    "InPlanePhaseEncodingDirectionDICOM": "COL",
    "InstitutionAddress": "Washington_Place_6_NYC_NYC_US_10003",
    "InstitutionName": "NYU_-_CBI",
    "InstitutionalDepartmentName": "Department",
    "MRAcquisitionType": "2D",
    "MagneticFieldStrength": 3,
    "Manufacturer": "Siemens",
    "ManufacturersModelName": "Prisma",
    "Modality": "MR",
    "MultibandAccelerationFactor": 6,
    "NumberOfVolumes": 192,
    "PartialFourier": 1,
    "PatientPosition": "HFS",
    "PercentPhaseFOV": 100,
    "PhaseEncodingDirection": "j",
    "PhaseEncodingSteps": 104,
    "PhaseResolution": 1,
    "PixelBandwidth": 2290,
    "ProcedureStepDescription": "Investigators_Winawer",
    "ProtocolName": "cmrr_mbepi_s6_2mm_66sl_PA_task-prf",
    "PulseSequenceDetails": "%CustomerSeq%_cmrr_mbep2d_bold",
    "ReceiveCoilActiveElements": "HC1-7",
    "ReceiveCoilName": "HeadNeck_64",
    "ReconMatrixPE": 104,
    "RepetitionTime": 1,
    "SAR": 0.068692,
    "ScanOptions": "FS",
    "ScanningSequence": "EP",
    "SequenceName": "epfid2d1_104",
    "SequenceVariant": "SK_SS",
    "SeriesDescription": "cmrr_mbepi_s6_2mm_66sl_PA_task-prf",
    "SeriesNumber": 10,
    "ShimSetting": [
      253,
      -12562,
      -8457,
      379,
      -116,
      32,
      -112,
      52
    ],
    "SliceThickness": 2,
    "SliceTiming": [
      0,
      0.535,
      0.0875,
      0.6225,
      0.1775,
      0.7125,
      0.2675,
      0.8,
      0.355,
      0.89,
      0.445,
      0,
      0.535,
      0.0875,
      0.6225,
      0.1775,
      0.7125,
      0.2675,
      0.8,
      0.355,
      0.89,
      0.445,
      0,
      0.535,
      0.0875,
      0.6225,
      0.1775,
      0.7125,
      0.2675,
      0.8,
      0.355,
      0.89,
      0.445,
      0,
      0.535,
      0.0875,
      0.6225,
      0.1775,
      0.7125,
      0.2675,
      0.8,
      0.355,
      0.89,
      0.445,
      0,
      0.535,
      0.0875,
      0.6225,
      0.1775,
      0.7125,
      0.2675,
      0.8,
      0.355,
      0.89,
      0.445,
      0,
      0.535,
      0.0875,
      0.6225,
      0.1775,
      0.7125,
      0.2675,
      0.8,
      0.355,
      0.89,
      0.445
    ],
    "SoftwareVersions": "syngo_MR_E11",
    "SpacingBetweenSlices": 2,
    "StationName": "AWP166018",
    "TaskName": "prf",
    "TotalReadoutTime": 0.0597409,
    "TxRefAmp": 221.385,
    "WipMemBlock": "7378edc6-d062-4cc0-82ac-462082a2613c||Sequence: R016 ve11c/master r/8780670; Nov 27 2017 15:05:12 by eja",
    "acq_id": "PA",
    "dataset": "unknown",
    "dcmmeta_affine": [
      [
        -1.9924092292785645,
        -0.14806151390075684,
        0.09155989438295364,
        115.22147369384766
      ],
      [
        -0.17120517790317535,
        1.857072114944458,
        -0.7224763035774231,
        -54.160823822021484
      ],
      [
        0.0315311923623085,
        0.727571964263916,
        1.8626983165740967,
        -87.12887573242188
      ],
      [
        0.0,
        0.0,
        0.0,
        1.0
      ]
    ],
    "dcmmeta_reorient_transform": [
      [
        0.0,
        -1.0,
        0.0,
        103.0
      ],
      [
        1.0,
        0.0,
        0.0,
        0.0
      ],
      [
        0.0,
        0.0,
        1.0,
        0.0
      ],
      [
        0.0,
        0.0,
        0.0,
        1.0
      ]
    ],
    "dcmmeta_shape": [
      104,
      104,
      66,
      192
    ],
    "dcmmeta_slice_dim": 2,
    "dcmmeta_version": 0.6,
    "global": {
      "const": {
        "AccessionNumber": "JU9RZJEV",
        "AcquisitionMatrix": [
          104,
          0,
          0,
          104
        ],
        "AngioFlag": "N",
        "BitsAllocated": 16,
        "BitsStored": 16,
        "BodyPartExamined": "BRAIN",
        "Columns": 936,
        "EchoNumbers": 1,
        "EchoTime": 37.0,
        "EchoTrainLength": 104,
        "FlipAngle": 68.0,
        "HighBit": 15,
        "ImageOrientationPatient": [
          0.99620461906818,
          0.08560258718834,
          0.01576559589405,
          -0.0740307604653,
          0.92853605273638,
          -0.3637859882866
        ],
        "ImagePositionPatient": [
          -867.21978845316,
          -980.88095324883,
          277.36400393594
        ],
        "ImageType": [
          "ORIGINAL",
          "PRIMARY",
          "M",
          "MB",
          "ND",
          "MOSAIC"
        ],
        "ImagedNucleus": "1H",
        "ImagingFrequency": 123.191016,
        "InPlanePhaseEncodingDirection": "COL",
        "MRAcquisitionType": "2D",
        "MagneticFieldStrength": 3.0,
        "Manufacturer": "SIEMENS",
        "ManufacturerModelName": "Prisma",
        "Modality": "MR",
        "NumberOfAverages": 1.0,
        "NumberOfPhaseEncodingSteps": 104,
        "PercentPhaseFieldOfView": 100.0,
        "PercentSampling": 100.0,
        "PerformedProcedureStepStartTime": "085101.370000",
        "PhotometricInterpretation": "MONOCHROME2",
        "PixelBandwidth": 2290.0,
        "PixelRepresentation": 0,
        "PixelSpacing": [
          2.0,
          2.0
        ],
        "ProtocolName": "cmrr_mbepi_s6_2mm_66sl_PA_task-prf",
        "RepetitionTime": 1000.0,
        "Rows": 936,
        "SAR": 0.06869203088308,
        "SamplesPerPixel": 1,
        "ScanOptions": "FS",
        "ScanningSequence": "EP",
        "SequenceName": "epfid2d1_104",
        "SequenceVariant": [
          "SK",
          "SS"
        ],
        "SeriesDescription": "cmrr_mbepi_s6_2mm_66sl_PA_task-prf",
        "SeriesNumber": 10,
        "SeriesTime": "092001.260000",
        "SliceLocation": -56.307615263165,
        "SliceThickness": 2.0,
        "SmallestImagePixelValue": 0,
        "SoftwareVersions": "syngo MR E11",
        "SpacingBetweenSlices": 2.0000000386761,
        "SpecificCharacterSet": "ISO_IR 100",
        "StudyID": "1",
        "StudyTime": "085101.165000",
        "TransmitCoilName": "Body",
        "VariableFlipAngleFlag": "N",
        "WindowCenterWidthExplanation": "Algo1",
        "dBdt": 0.0
      },
      "slices": {}
    },
    "modality": "bold",
    "run_id": 2,
    "session_id": "nyu3t01",
    "subject_id": "wlsubj076",
    "task_id": "prf",
    "time": {
      "samples": {
        "AcquisitionNumber": [
          1,
          2,
          3,
          4,
          5,
          6,
          7,
          8,
          9,
          10,
          11,
          12,
          13,
          14,
          15,
          16,
          17,
          18,
          19,
          20,
          21,
          22,
          23,
          24,
          25,
          26,
          27,
          28,
          29,
          30,
          31,
          32,
          33,
          34,
          35,
          36,
          37,
          38,
          39,
          40,
          41,
          42,
          43,
          44,
          45,
          46,
          47,
          48,
          49,
          50,
          51,
          52,
          53,
          54,
          55,
          56,
          57,
          58,
          59,
          60,
          61,
          62,
          63,
          64,
          65,
          66,
          67,
          68,
          69,
          70,
          71,
          72,
          73,
          74,
          75,
          76,
          77,
          78,
          79,
          80,
          81,
          82,
          83,
          84,
          85,
          86,
          87,
          88,
          89,
          90,
          91,
          92,
          93,
          94,
          95,
          96,
          97,
          98,
          99,
          100,
          101,
          102,
          103,
          104,
          105,
          106,
          107,
          108,
          109,
          110,
          111,
          112,
          113,
          114,
          115,
          116,
          117,
          118,
          119,
          120,
          121,
          122,
          123,
          124,
          125,
          126,
          127,
          128,
          129,
          130,
          131,
          132,
          133,
          134,
          135,
          136,
          137,
          138,
          139,
          140,
          141,
          142,
          143,
          144,
          145,
          146,
          147,
          148,
          149,
          150,
          151,
          152,
          153,
          154,
          155,
          156,
          157,
          158,
          159,
          160,
          161,
          162,
          163,
          164,
          165,
          166,
          167,
          168,
          169,
          170,
          171,
          172,
          173,
          174,
          175,
          176,
          177,
          178,
          179,
          180,
          181,
          182,
          183,
          184,
          185,
          186,
          187,
          188,
          189,
          190,
          191,
          192
        ],
        "AcquisitionTime": [
          "091900.462500",
          "091901.462500",
          "091902.462500",
          "091903.462500",
          "091904.462500",
          "091905.462500",
          "091906.462500",
          "091907.462500",
          "091908.462500",
          "091909.462500",
          "091910.462500",
          "091911.462500",
          "091912.462500",
          "091913.462500",
          "091914.462500",
          "091915.462500",
          "091916.462500",
          "091917.462500",
          "091918.462500",
          "091919.462500",
          "091920.462500",
          "091921.462500",
          "091922.462500",
          "091923.462500",
          "091924.462500",
          "091925.462500",
          "091926.462500",
          "091927.462500",
          "091928.462500",
          "091929.462500",
          "091930.462500",
          "091931.462500",
          "091932.462500",
          "091933.462500",
          "091934.462500",
          "091935.462500",
          "091936.462500",
          "091937.462500",
          "091938.462500",
          "091939.462500",
          "091940.462500",
          "091941.462500",
          "091942.462500",
          "091943.462500",
          "091944.462500",
          "091945.462500",
          "091946.462500",
          "091947.462500",
          "091948.462500",
          "091949.462500",
          "091950.462500",
          "091951.462500",
          "091952.462500",
          "091953.462500",
          "091954.462500",
          "091955.462500",
          "091956.462500",
          "091957.462500",
          "091958.462500",
          "091959.462500",
          "092000.462500",
          "092001.462500",
          "092002.462500",
          "092003.462500",
          "092004.462500",
          "092005.462500",
          "092006.462500",
          "092007.462500",
          "092008.462500",
          "092009.462500",
          "092010.462500",
          "092011.462500",
          "092012.462500",
          "092013.462500",
          "092014.462500",
          "092015.462500",
          "092016.462500",
          "092017.462500",
          "092018.462500",
          "092019.462500",
          "092020.462500",
          "092021.462500",
          "092022.462500",
          "092023.462500",
          "092024.462500",
          "092025.462500",
          "092026.462500",
          "092027.462500",
          "092028.462500",
          "092029.462500",
          "092030.462500",
          "092031.462500",
          "092032.462500",
          "092033.462500",
          "092034.462500",
          "092035.462500",
          "092036.462500",
          "092037.462500",
          "092038.462500",
          "092039.462500",
          "092040.462500",
          "092041.462500",
          "092042.462500",
          "092043.462500",
          "092044.462500",
          "092045.462500",
          "092046.462500",
          "092047.462500",
          "092048.462500",
          "092049.462500",
          "092050.462500",
          "092051.462500",
          "092052.462500",
          "092053.462500",
          "092054.462500",
          "092055.462500",
          "092056.462500",
          "092057.462500",
          "092058.462500",
          "092059.462500",
          "092100.462500",
          "092101.462500",
          "092102.462500",
          "092103.462500",
          "092104.462500",
          "092105.462500",
          "092106.462500",
          "092107.462500",
          "092108.462500",
          "092109.462500",
          "092110.462500",
          "092111.462500",
          "092112.462500",
          "092113.462500",
          "092114.462500",
          "092115.462500",
          "092116.462500",
          "092117.462500",
          "092118.462500",
          "092119.462500",
          "092120.462500",
          "092121.462500",
          "092122.462500",
          "092123.462500",
          "092124.462500",
          "092125.462500",
          "092126.462500",
          "092127.462500",
          "092128.462500",
          "092129.462500",
          "092130.462500",
          "092131.462500",
          "092132.462500",
          "092133.462500",
          "092134.462500",
          "092135.462500",
          "092136.462500",
          "092137.462500",
          "092138.462500",
          "092139.462500",
          "092140.462500",
          "092141.462500",
          "092142.462500",
          "092143.462500",
          "092144.462500",
          "092145.462500",
          "092146.462500",
          "092147.462500",
          "092148.462500",
          "092149.462500",
          "092150.462500",
          "092151.462500",
          "092152.462500",
          "092153.462500",
          "092154.462500",
          "092155.462500",
          "092156.462500",
          "092157.462500",
          "092158.462500",
          "092159.462500",
          "092200.462500",
          "092201.462500",
          "092202.462500",
          "092203.462500",
          "092204.462500",
          "092205.462500",
          "092206.462500",
          "092207.462500",
          "092208.462500",
          "092209.462500",
          "092210.462500",
          "092211.462500"
        ],
        "ContentTime": [
          "092001.262000",
          "092001.266000",
          "092001.269000",
          "092001.272000",
          "092001.275000",
          "092001.278000",
          "092006.226000",
          "092006.236000",
          "092006.247000",
          "092006.250000",
          "092006.254000",
          "092006.257000",
          "092006.260000",
          "092011.226000",
          "092011.229000",
          "092011.246000",
          "092011.249000",
          "092011.252000",
          "092011.255000",
          "092011.259000",
          "092016.227000",
          "092016.230000",
          "092016.233000",
          "092016.236000",
          "092016.239000",
          "092016.242000",
          "092016.245000",
          "092021.226000",
          "092021.229000",
          "092021.232000",
          "092021.235000",
          "092021.238000",
          "092021.241000",
          "092021.244000",
          "092021.247000",
          "092031.227000",
          "092031.234000",
          "092031.237000",
          "092031.240000",
          "092031.243000",
          "092031.246000",
          "092031.249000",
          "092031.252000",
          "092031.255000",
          "092031.258000",
          "092031.261000",
          "092031.264000",
          "092031.267000",
          "092031.270000",
          "092036.226000",
          "092036.232000",
          "092036.235000",
          "092036.238000",
          "092036.241000",
          "092036.244000",
          "092036.247000",
          "092041.226000",
          "092041.229000",
          "092041.232000",
          "092041.235000",
          "092041.238000",
          "092041.252000",
          "092041.255000",
          "092046.226000",
          "092046.229000",
          "092046.232000",
          "092046.235000",
          "092046.238000",
          "092046.241000",
          "092046.244000",
          "092051.227000",
          "092051.230000",
          "092051.233000",
          "092051.236000",
          "092051.239000",
          "092051.242000",
          "092051.245000",
          "092056.226000",
          "092056.229000",
          "092056.232000",
          "092056.235000",
          "092056.238000",
          "092056.241000",
          "092056.244000",
          "092101.226000",
          "092101.229000",
          "092101.232000",
          "092101.235000",
          "092101.238000",
          "092101.241000",
          "092101.244000",
          "092106.227000",
          "092106.230000",
          "092106.233000",
          "092106.236000",
          "092106.239000",
          "092106.242000",
          "092106.245000",
          "092111.226000",
          "092111.229000",
          "092111.232000",
          "092111.235000",
          "092111.238000",
          "092111.241000",
          "092111.244000",
          "092116.226000",
          "092116.229000",
          "092116.232000",
          "092116.235000",
          "092116.238000",
          "092116.241000",
          "092116.244000",
          "092121.226000",
          "092121.229000",
          "092121.232000",
          "092121.235000",
          "092121.238000",
          "092121.241000",
          "092121.244000",
          "092121.247000",
          "092126.227000",
          "092126.230000",
          "092126.233000",
          "092126.243000",
          "092126.251000",
          "092126.254000",
          "092126.257000",
          "092131.226000",
          "092131.229000",
          "092131.232000",
          "092131.235000",
          "092131.238000",
          "092131.241000",
          "092131.244000",
          "092136.226000",
          "092136.229000",
          "092136.232000",
          "092136.235000",
          "092136.238000",
          "092136.241000",
          "092136.244000",
          "092141.227000",
          "092141.230000",
          "092141.233000",
          "092141.236000",
          "092141.239000",
          "092141.242000",
          "092141.245000",
          "092146.226000",
          "092146.229000",
          "092146.232000",
          "092146.235000",
          "092146.238000",
          "092146.241000",
          "092146.244000",
          "092151.226000",
          "092151.229000",
          "092151.232000",
          "092151.235000",
          "092151.238000",
          "092151.241000",
          "092151.244000",
          "092156.226000",
          "092156.229000",
          "092156.232000",
          "092156.235000",
          "092156.238000",
          "092156.241000",
          "092156.244000",
          "092201.227000",
          "092201.230000",
          "092201.233000",
          "092201.236000",
          "092201.239000",
          "092201.242000",
          "092201.245000",
          "092206.226000",
          "092206.249000",
          "092206.252000",
          "092206.255000",
          "092206.258000",
          "092206.261000",
          "092206.264000",
          "092211.226000",
          "092211.229000",
          "092211.232000",
          "092211.235000",
          "092211.238000",
          "092211.241000",
          "092213.583000",
          "092213.587000",
          "092213.591000"
        ],
        "InstanceCreationTime": [
          "092001.262000",
          "092001.266000",
          "092001.269000",
          "092001.272000",
          "092001.275000",
          "092001.278000",
          "092006.226000",
          "092006.236000",
          "092006.247000",
          "092006.250000",
          "092006.254000",
          "092006.257000",
          "092006.260000",
          "092011.226000",
          "092011.229000",
          "092011.246000",
          "092011.249000",
          "092011.252000",
          "092011.255000",
          "092011.259000",
          "092016.227000",
          "092016.230000",
          "092016.233000",
          "092016.236000",
          "092016.239000",
          "092016.242000",
          "092016.245000",
          "092021.226000",
          "092021.229000",
          "092021.232000",
          "092021.235000",
          "092021.238000",
          "092021.241000",
          "092021.244000",
          "092021.247000",
          "092031.227000",
          "092031.234000",
          "092031.237000",
          "092031.240000",
          "092031.243000",
          "092031.246000",
          "092031.249000",
          "092031.252000",
          "092031.255000",
          "092031.258000",
          "092031.261000",
          "092031.264000",
          "092031.267000",
          "092031.270000",
          "092036.226000",
          "092036.232000",
          "092036.235000",
          "092036.238000",
          "092036.241000",
          "092036.244000",
          "092036.247000",
          "092041.226000",
          "092041.229000",
          "092041.232000",
          "092041.235000",
          "092041.238000",
          "092041.252000",
          "092041.255000",
          "092046.226000",
          "092046.229000",
          "092046.232000",
          "092046.235000",
          "092046.238000",
          "092046.241000",
          "092046.244000",
          "092051.227000",
          "092051.230000",
          "092051.233000",
          "092051.236000",
          "092051.239000",
          "092051.242000",
          "092051.245000",
          "092056.226000",
          "092056.229000",
          "092056.232000",
          "092056.235000",
          "092056.238000",
          "092056.241000",
          "092056.244000",
          "092101.226000",
          "092101.229000",
          "092101.232000",
          "092101.235000",
          "092101.238000",
          "092101.241000",
          "092101.244000",
          "092106.227000",
          "092106.230000",
          "092106.233000",
          "092106.236000",
          "092106.239000",
          "092106.242000",
          "092106.245000",
          "092111.226000",
          "092111.229000",
          "092111.232000",
          "092111.235000",
          "092111.238000",
          "092111.241000",
          "092111.244000",
          "092116.226000",
          "092116.229000",
          "092116.232000",
          "092116.235000",
          "092116.238000",
          "092116.241000",
          "092116.244000",
          "092121.226000",
          "092121.229000",
          "092121.232000",
          "092121.235000",
          "092121.238000",
          "092121.241000",
          "092121.244000",
          "092121.247000",
          "092126.227000",
          "092126.230000",
          "092126.233000",
          "092126.243000",
          "092126.251000",
          "092126.254000",
          "092126.257000",
          "092131.226000",
          "092131.229000",
          "092131.232000",
          "092131.235000",
          "092131.238000",
          "092131.241000",
          "092131.244000",
          "092136.226000",
          "092136.229000",
          "092136.232000",
          "092136.235000",
          "092136.238000",
          "092136.241000",
          "092136.244000",
          "092141.227000",
          "092141.230000",
          "092141.233000",
          "092141.236000",
          "092141.239000",
          "092141.242000",
          "092141.245000",
          "092146.226000",
          "092146.229000",
          "092146.232000",
          "092146.235000",
          "092146.238000",
          "092146.241000",
          "092146.244000",
          "092151.226000",
          "092151.229000",
          "092151.232000",
          "092151.235000",
          "092151.238000",
          "092151.241000",
          "092151.244000",
          "092156.226000",
          "092156.229000",
          "092156.232000",
          "092156.235000",
          "092156.238000",
          "092156.241000",
          "092156.244000",
          "092201.227000",
          "092201.230000",
          "092201.233000",
          "092201.236000",
          "092201.239000",
          "092201.242000",
          "092201.245000",
          "092206.226000",
          "092206.249000",
          "092206.252000",
          "092206.255000",
          "092206.258000",
          "092206.261000",
          "092206.264000",
          "092211.226000",
          "092211.229000",
          "092211.232000",
          "092211.235000",
          "092211.238000",
          "092211.241000",
          "092213.583000",
          "092213.587000",
          "092213.591000"
        ],
        "InstanceNumber": [
          1,
          2,
          3,
          4,
          5,
          6,
          7,
          8,
          9,
          10,
          11,
          12,
          13,
          14,
          15,
          16,
          17,
          18,
          19,
          20,
          21,
          22,
          23,
          24,
          25,
          26,
          27,
          28,
          29,
          30,
          31,
          32,
          33,
          34,
          35,
          36,
          37,
          38,
          39,
          40,
          41,
          42,
          43,
          44,
          45,
          46,
          47,
          48,
          49,
          50,
          51,
          52,
          53,
          54,
          55,
          56,
          57,
          58,
          59,
          60,
          61,
          62,
          63,
          64,
          65,
          66,
          67,
          68,
          69,
          70,
          71,
          72,
          73,
          74,
          75,
          76,
          77,
          78,
          79,
          80,
          81,
          82,
          83,
          84,
          85,
          86,
          87,
          88,
          89,
          90,
          91,
          92,
          93,
          94,
          95,
          96,
          97,
          98,
          99,
          100,
          101,
          102,
          103,
          104,
          105,
          106,
          107,
          108,
          109,
          110,
          111,
          112,
          113,
          114,
          115,
          116,
          117,
          118,
          119,
          120,
          121,
          122,
          123,
          124,
          125,
          126,
          127,
          128,
          129,
          130,
          131,
          132,
          133,
          134,
          135,
          136,
          137,
          138,
          139,
          140,
          141,
          142,
          143,
          144,
          145,
          146,
          147,
          148,
          149,
          150,
          151,
          152,
          153,
          154,
          155,
          156,
          157,
          158,
          159,
          160,
          161,
          162,
          163,
          164,
          165,
          166,
          167,
          168,
          169,
          170,
          171,
          172,
          173,
          174,
          175,
          176,
          177,
          178,
          179,
          180,
          181,
          182,
          183,
          184,
          185,
          186,
          187,
          188,
          189,
          190,
          191,
          192
        ],
        "LargestImagePixelValue": [
          34793,
          34092,
          36116,
          33932,
          34069,
          34624,
          34024,
          34249,
          34009,
          33619,
          33537,
          34830,
          34331,
          34408,
          34078,
          35126,
          34069,
          34262,
          33874,
          33998,
          34196,
          33587,
          38109,
          35968,
          34171,
          34195,
          34555,
          33740,
          33937,
          34923,
          33857,
          34354,
          34672,
          33830,
          34152,
          35022,
          34378,
          34621,
          34318,
          33709,
          34525,
          33882,
          34052,
          34313,
          33698,
          33562,
          34585,
          33720,
          33143,
          34122,
          34385,
          32953,
          34220,
          34299,
          33721,
          34570,
          33788,
          33054,
          33503,
          33333,
          33930,
          33841,
          33139,
          33670,
          33965,
          33928,
          33204,
          33685,
          33692,
          33412,
          33154,
          32841,
          32486,
          32549,
          33024,
          32817,
          32363,
          32744,
          32831,
          32058,
          32434,
          32863,
          32460,
          32708,
