{
  "aor": 0.0005558115183246073,
  "aqi": 0.00585219497382199,
  "bids_meta": {
    "AcquisitionMatrixPE": 104,
    "AcquisitionNumber": 1,
    "AcquisitionTime": "09:15:13.842500",
    "BandwidthPerPixelPhaseEncode": 16.578,
    "BaseResolution": 104,
    "BodyPartExamined": "BRAIN",
    "CogAtlasID": "TODO",
    "ConsistencyInfo": "N4_VE11C_LATEST_20160120",
    "ConversionSoftware": "dcm2niix",
    "ConversionSoftwareVersion": "v1.0.20190902",
    "DerivedVendorReportedEchoSpacing": 0.000580009,
    "DeviceSerialNumber": "166018",
    "DwellTime": 2.1e-06,
    "EchoTime": 0.037,
    "EchoTrainLength": 104,
    "EffectiveEchoSpacing": 0.000580009,
    "FlipAngle": 68,
    "ImageComments": "Unaliased_MB6_PE3_LB",
    "ImageOrientationPatientDICOM": [
      0.996205,
      0.0856026,
      0.0157656,
      -0.0740308,
      0.928536,
      -0.363786
    ],
    "ImageType": [
      "ORIGINAL",
      "PRIMARY",
      "M",
      "MB",
      "ND",
      "MOSAIC"
    ],
    "ImagingFrequency": 123.191,
    "InPlanePhaseEncodingDirectionDICOM": "COL",
    "InstitutionAddress": "Washington_Place_6_NYC_NYC_US_10003",
    "InstitutionName": "NYU_-_CBI",
    "InstitutionalDepartmentName": "Department",
    "MRAcquisitionType": "2D",
    "MagneticFieldStrength": 3,
    "Manufacturer": "Siemens",
    "ManufacturersModelName": "Prisma",
    "Modality": "MR",
    "MultibandAccelerationFactor": 6,
    "NumberOfVolumes": 192,
    "PartialFourier": 1,
    "PatientPosition": "HFS",
    "PercentPhaseFOV": 100,
    "PhaseEncodingDirection": "j",
    "PhaseEncodingSteps": 104,
    "PhaseResolution": 1,
    "PixelBandwidth": 2290,
    "ProcedureStepDescription": "Investigators_Winawer",
    "ProtocolName": "cmrr_mbepi_s6_2mm_66sl_PA_task-prf",
    "PulseSequenceDetails": "%CustomerSeq%_cmrr_mbep2d_bold",
    "ReceiveCoilActiveElements": "HC1-7",
    "ReceiveCoilName": "HeadNeck_64",
    "ReconMatrixPE": 104,
    "RepetitionTime": 1,
    "SAR": 0.068692,
    "ScanOptions": "FS",
    "ScanningSequence": "EP",
    "SequenceName": "epfid2d1_104",
    "SequenceVariant": "SK_SS",
    "SeriesDescription": "cmrr_mbepi_s6_2mm_66sl_PA_task-prf",
    "SeriesNumber": 8,
    "ShimSetting": [
      253,
      -12562,
      -8457,
      379,
      -116,
      32,
      -112,
      52
    ],
    "SliceThickness": 2,
    "SliceTiming": [
      0,
      0.535,
      0.09,
      0.6225,
      0.1775,
      0.7125,
      0.2675,
      0.8025,
      0.3575,
      0.89,
      0.445,
      0,
      0.535,
      0.09,
      0.6225,
      0.1775,
      0.7125,
      0.2675,
      0.8025,
      0.3575,
      0.89,
      0.445,
      0,
      0.535,
      0.09,
      0.6225,
      0.1775,
      0.7125,
      0.2675,
      0.8025,
      0.3575,
      0.89,
      0.445,
      0,
      0.535,
      0.09,
      0.6225,
      0.1775,
      0.7125,
      0.2675,
      0.8025,
      0.3575,
      0.89,
      0.445,
      0,
      0.535,
      0.09,
      0.6225,
      0.1775,
      0.7125,
      0.2675,
      0.8025,
      0.3575,
      0.89,
      0.445,
      0,
      0.535,
      0.09,
      0.6225,
      0.1775,
      0.7125,
      0.2675,
      0.8025,
      0.3575,
      0.89,
      0.445
    ],
    "SoftwareVersions": "syngo_MR_E11",
    "SpacingBetweenSlices": 2,
    "StationName": "AWP166018",
    "TaskName": "prf",
    "TotalReadoutTime": 0.0597409,
    "TxRefAmp": 221.385,
    "WipMemBlock": "7378edc6-d062-4cc0-82ac-462082a2613c||Sequence: R016 ve11c/master r/8780670; Nov 27 2017 15:05:12 by eja",
    "acq_id": "PA",
    "dataset": "unknown",
    "dcmmeta_affine": [
      [
        -1.9924092292785645,
        -0.14806151390075684,
        0.09155989438295364,
        115.22147369384766
      ],
      [
        -0.17120517790317535,
        1.857072114944458,
        -0.7224763035774231,
        -54.160823822021484
      ],
      [
        0.0315311923623085,
        0.727571964263916,
        1.8626983165740967,
        -87.12887573242188
      ],
      [
        0.0,
        0.0,
        0.0,
        1.0
      ]
    ],
    "dcmmeta_reorient_transform": [
      [
        0.0,
        -1.0,
        0.0,
        103.0
      ],
      [
        1.0,
        0.0,
        0.0,
        0.0
      ],
      [
        0.0,
        0.0,
        1.0,
        0.0
      ],
      [
        0.0,
        0.0,
        0.0,
        1.0
      ]
    ],
    "dcmmeta_shape": [
      104,
      104,
      66,
      192
    ],
    "dcmmeta_slice_dim": 2,
    "dcmmeta_version": 0.6,
    "global": {
      "const": {
        "AccessionNumber": "JU9RZJEV",
        "AcquisitionMatrix": [
          104,
          0,
          0,
          104
        ],
        "AngioFlag": "N",
        "BitsAllocated": 16,
        "BitsStored": 16,
        "BodyPartExamined": "BRAIN",
        "Columns": 936,
        "EchoNumbers": 1,
        "EchoTime": 37.0,
        "EchoTrainLength": 104,
        "FlipAngle": 68.0,
        "HighBit": 15,
        "ImageOrientationPatient": [
          0.99620461906818,
          0.08560258718834,
          0.01576559589405,
          -0.0740307604653,
          0.92853605273638,
          -0.3637859882866
        ],
        "ImagePositionPatient": [
          -867.21978845316,
          -980.88095324883,
          277.36400393594
        ],
        "ImageType": [
          "ORIGINAL",
          "PRIMARY",
          "M",
          "MB",
          "ND",
          "MOSAIC"
        ],
        "ImagedNucleus": "1H",
        "ImagingFrequency": 123.191016,
        "InPlanePhaseEncodingDirection": "COL",
        "MRAcquisitionType": "2D",
        "MagneticFieldStrength": 3.0,
        "Manufacturer": "SIEMENS",
        "ManufacturerModelName": "Prisma",
        "Modality": "MR",
        "NumberOfAverages": 1.0,
        "NumberOfPhaseEncodingSteps": 104,
        "PercentPhaseFieldOfView": 100.0,
        "PercentSampling": 100.0,
        "PerformedProcedureStepStartTime": "085101.370000",
        "PhotometricInterpretation": "MONOCHROME2",
        "PixelBandwidth": 2290.0,
        "PixelRepresentation": 0,
        "PixelSpacing": [
          2.0,
          2.0
        ],
        "ProtocolName": "cmrr_mbepi_s6_2mm_66sl_PA_task-prf",
        "RepetitionTime": 1000.0,
        "Rows": 936,
        "SAR": 0.06869203088308,
        "SamplesPerPixel": 1,
        "ScanOptions": "FS",
        "ScanningSequence": "EP",
        "SequenceName": "epfid2d1_104",
        "SequenceVariant": [
          "SK",
          "SS"
        ],
        "SeriesDescription": "cmrr_mbepi_s6_2mm_66sl_PA_task-prf",
        "SeriesNumber": 8,
        "SeriesTime": "091608.197000",
        "SliceLocation": -56.307615263165,
        "SliceThickness": 2.0,
        "SmallestImagePixelValue": 0,
        "SoftwareVersions": "syngo MR E11",
        "SpacingBetweenSlices": 2.0000000386761,
        "SpecificCharacterSet": "ISO_IR 100",
        "StudyID": "1",
        "StudyTime": "085101.165000",
        "TransmitCoilName": "Body",
        "VariableFlipAngleFlag": "N",
        "WindowCenterWidthExplanation": "Algo1",
        "dBdt": 0.0
      },
      "slices": {}
    },
    "modality": "bold",
    "run_id": 1,
    "session_id": "nyu3t01",
    "subject_id": "wlsubj076",
    "task_id": "prf",
    "time": {
      "samples": {
        "AcquisitionNumber": [
          1,
          2,
          3,
          4,
          5,
          6,
          7,
          8,
          9,
          10,
          11,
          12,
          13,
          14,
          15,
          16,
          17,
          18,
          19,
          20,
          21,
          22,
          23,
          24,
          25,
          26,
          27,
          28,
          29,
          30,
          31,
          32,
          33,
          34,
          35,
          36,
          37,
          38,
          39,
          40,
          41,
          42,
          43,
          44,
          45,
          46,
          47,
          48,
          49,
          50,
          51,
          52,
          53,
          54,
          55,
          56,
          57,
          58,
          59,
          60,
          61,
          62,
          63,
          64,
          65,
          66,
          67,
          68,
          69,
          70,
          71,
          72,
          73,
          74,
          75,
          76,
          77,
          78,
          79,
          80,
          81,
          82,
          83,
          84,
          85,
          86,
          87,
          88,
          89,
          90,
          91,
          92,
          93,
          94,
          95,
          96,
          97,
          98,
          99,
          100,
          101,
          102,
          103,
          104,
          105,
          106,
          107,
          108,
          109,
          110,
          111,
          112,
          113,
          114,
          115,
          116,
          117,
          118,
          119,
          120,
          121,
          122,
          123,
          124,
          125,
          126,
          127,
          128,
          129,
          130,
          131,
          132,
          133,
          134,
          135,
          136,
          137,
          138,
          139,
          140,
          141,
          142,
          143,
          144,
          145,
          146,
          147,
          148,
          149,
          150,
          151,
          152,
          153,
          154,
          155,
          156,
          157,
          158,
          159,
          160,
          161,
          162,
          163,
          164,
          165,
          166,
          167,
          168,
          169,
          170,
          171,
          172,
          173,
          174,
          175,
          176,
          177,
          178,
          179,
          180,
          181,
          182,
          183,
          184,
          185,
          186,
          187,
          188,
          189,
          190,
          191,
          192
        ],
        "AcquisitionTime": [
          "091513.842500",
          "091514.842500",
          "091515.842500",
          "091516.842500",
          "091517.842500",
          "091518.842500",
          "091519.842500",
          "091520.842500",
          "091521.842500",
          "091522.842500",
          "091523.842500",
          "091524.842500",
          "091525.842500",
          "091526.842500",
          "091527.842500",
          "091528.842500",
          "091529.842500",
          "091530.842500",
          "091531.842500",
          "091532.842500",
          "091533.842500",
          "091534.842500",
          "091535.842500",
          "091536.842500",
          "091537.842500",
          "091538.842500",
          "091539.842500",
          "091540.842500",
          "091541.842500",
          "091542.842500",
          "091543.842500",
          "091544.842500",
          "091545.842500",
          "091546.842500",
          "091547.842500",
          "091548.842500",
          "091549.842500",
          "091550.842500",
          "091551.842500",
          "091552.842500",
          "091553.842500",
          "091554.842500",
          "091555.842500",
          "091556.842500",
          "091557.842500",
          "091558.842500",
          "091559.842500",
          "091600.842500",
          "091601.842500",
          "091602.842500",
          "091603.842500",
          "091604.842500",
          "091605.842500",
          "091606.842500",
          "091607.842500",
          "091608.842500",
          "091609.842500",
          "091610.842500",
          "091611.842500",
          "091612.842500",
          "091613.842500",
          "091614.842500",
          "091615.842500",
          "091616.842500",
          "091617.842500",
          "091618.842500",
          "091619.842500",
          "091620.842500",
          "091621.842500",
          "091622.842500",
          "091623.842500",
          "091624.842500",
          "091625.842500",
          "091626.842500",
          "091627.842500",
          "091628.842500",
          "091629.842500",
          "091630.842500",
          "091631.842500",
          "091632.842500",
          "091633.842500",
          "091634.842500",
          "091635.842500",
          "091636.842500",
          "091637.842500",
          "091638.842500",
          "091639.842500",
          "091640.842500",
          "091641.842500",
          "091642.842500",
          "091643.842500",
          "091644.842500",
          "091645.842500",
          "091646.842500",
          "091647.842500",
          "091648.842500",
          "091649.842500",
          "091650.842500",
          "091651.842500",
          "091652.842500",
          "091653.842500",
          "091654.842500",
          "091655.842500",
          "091656.842500",
          "091657.842500",
          "091658.842500",
          "091659.842500",
          "091700.842500",
          "091701.842500",
          "091702.842500",
          "091703.842500",
          "091704.842500",
          "091705.842500",
          "091706.842500",
          "091707.842500",
          "091708.842500",
          "091709.842500",
          "091710.842500",
          "091711.842500",
          "091712.842500",
          "091713.842500",
          "091714.842500",
          "091715.842500",
          "091716.842500",
          "091717.842500",
          "091718.842500",
          "091719.842500",
          "091720.842500",
          "091721.842500",
          "091722.842500",
          "091723.842500",
          "091724.842500",
          "091725.842500",
          "091726.842500",
          "091727.842500",
          "091728.842500",
          "091729.842500",
          "091730.842500",
          "091731.842500",
          "091732.842500",
          "091733.842500",
          "091734.842500",
          "091735.842500",
          "091736.842500",
          "091737.842500",
          "091738.842500",
          "091739.842500",
          "091740.842500",
          "091741.842500",
          "091742.842500",
          "091743.842500",
          "091744.842500",
          "091745.842500",
          "091746.842500",
          "091747.842500",
          "091748.842500",
          "091749.842500",
          "091750.842500",
          "091751.842500",
          "091752.842500",
          "091753.842500",
          "091754.842500",
          "091755.842500",
          "091756.842500",
          "091757.842500",
          "091758.842500",
          "091759.842500",
          "091800.842500",
          "091801.842500",
          "091802.842500",
          "091803.842500",
          "091804.842500",
          "091805.842500",
          "091806.842500",
          "091807.842500",
          "091808.842500",
          "091809.842500",
          "091810.842500",
          "091811.842500",
          "091812.842500",
          "091813.842500",
          "091814.842500",
          "091815.842500",
          "091816.842500",
          "091817.842500",
          "091818.842500",
          "091819.842500",
          "091820.842500",
          "091821.842500",
          "091822.842500",
          "091823.842500",
          "091824.842500"
        ],
        "ContentTime": [
          "091608.200000",
          "091608.204000",
          "091608.207000",
          "091608.210000",
          "091608.213000",
          "091608.216000",
          "091613.175000",
          "091613.178000",
          "091613.181000",
          "091613.184000",
          "091613.187000",
          "091613.190000",
          "091613.193000",
          "091618.175000",
          "091618.178000",
          "091618.181000",
          "091618.184000",
          "091618.187000",
          "091618.190000",
          "091618.193000",
          "091623.175000",
          "091623.178000",
          "091623.181000",
          "091623.184000",
          "091623.187000",
          "091623.190000",
          "091623.193000",
          "091628.175000",
          "091628.178000",
          "091628.181000",
          "091628.184000",
          "091628.187000",
          "091628.190000",
          "091628.193000",
          "091633.175000",
          "091633.178000",
          "091633.181000",
          "091633.184000",
          "091633.187000",
          "091633.190000",
          "091633.193000",
          "091638.175000",
          "091638.225000",
          "091638.228000",
          "091638.231000",
          "091638.234000",
          "091638.237000",
          "091638.240000",
          "091643.176000",
          "091643.179000",
          "091643.182000",
          "091643.185000",
          "091643.188000",
          "091643.191000",
          "091643.194000",
          "091648.175000",
          "091648.178000",
          "091648.181000",
          "091648.184000",
          "091648.187000",
          "091648.190000",
          "091648.193000",
          "091653.175000",
          "091653.178000",
          "091653.181000",
          "091653.184000",
          "091653.187000",
          "091653.190000",
          "091653.193000",
          "091658.175000",
          "091658.178000",
          "091658.181000",
          "091658.184000",
          "091658.187000",
          "091658.190000",
          "091658.193000",
          "091703.175000",
          "091703.178000",
          "091703.181000",
          "091703.184000",
          "091703.187000",
          "091703.190000",
          "091703.193000",
          "091708.175000",
          "091708.178000",
          "091708.181000",
          "091708.184000",
          "091708.187000",
          "091708.190000",
          "091708.193000",
          "091713.175000",
          "091713.178000",
          "091713.181000",
          "091713.184000",
          "091713.187000",
          "091713.191000",
          "091713.194000",
          "091718.176000",
          "091718.179000",
          "091718.182000",
          "091718.185000",
          "091718.188000",
          "091718.191000",
          "091718.194000",
          "091718.197000",
          "091723.175000",
          "091723.178000",
          "091723.181000",
          "091723.184000",
          "091723.187000",
          "091723.190000",
          "091723.193000",
          "091728.175000",
          "091728.178000",
          "091728.181000",
          "091728.184000",
          "091728.187000",
          "091728.190000",
          "091728.193000",
          "091733.175000",
          "091733.178000",
          "091733.181000",
          "091733.184000",
          "091733.197000",
          "091733.200000",
          "091733.203000",
          "091738.175000",
          "091738.178000",
          "091738.181000",
          "091738.184000",
          "091738.187000",
          "091738.190000",
          "091738.193000",
          "091743.175000",
          "091743.178000",
          "091743.181000",
          "091743.184000",
          "091743.187000",
          "091743.190000",
          "091743.193000",
          "091748.175000",
          "091748.178000",
          "091748.181000",
          "091748.184000",
          "091748.187000",
          "091748.190000",
          "091748.193000",
          "091753.176000",
          "091753.179000",
          "091753.182000",
          "091753.185000",
          "091753.188000",
          "091753.191000",
          "091753.194000",
          "091758.175000",
          "091758.178000",
          "091758.181000",
          "091758.184000",
          "091758.187000",
          "091758.190000",
          "091758.193000",
          "091803.175000",
          "091803.178000",
          "091803.181000",
          "091803.184000",
          "091803.187000",
          "091803.190000",
          "091803.193000",
          "091808.175000",
          "091808.178000",
          "091808.181000",
          "091808.184000",
          "091808.187000",
          "091813.175000",
          "091813.178000",
          "091813.181000",
          "091813.184000",
          "091813.187000",
          "091818.175000",
          "091818.178000",
          "091818.181000",
          "091818.184000",
          "091818.187000",
          "091823.175000",
          "091823.178000",
          "091823.186000",
          "091823.189000",
          "091823.192000",
          "091826.811000",
          "091826.815000",
          "091826.818000",
          "091826.822000"
        ],
        "InstanceCreationTime": [
          "091608.200000",
          "091608.204000",
          "091608.207000",
          "091608.210000",
          "091608.213000",
          "091608.216000",
          "091613.175000",
          "091613.178000",
          "091613.181000",
          "091613.184000",
          "091613.187000",
          "091613.190000",
          "091613.193000",
          "091618.175000",
          "091618.178000",
          "091618.181000",
          "091618.184000",
          "091618.187000",
          "091618.190000",
          "091618.193000",
          "091623.175000",
          "091623.178000",
          "091623.181000",
          "091623.184000",
          "091623.187000",
          "091623.190000",
          "091623.193000",
          "091628.175000",
          "091628.178000",
          "091628.181000",
          "091628.184000",
          "091628.187000",
          "091628.190000",
          "091628.193000",
          "091633.175000",
          "091633.178000",
          "091633.181000",
          "091633.184000",
          "091633.187000",
          "091633.190000",
          "091633.193000",
          "091638.175000",
          "091638.225000",
          "091638.228000",
          "091638.231000",
          "091638.234000",
          "091638.237000",
          "091638.240000",
          "091643.176000",
          "091643.179000",
          "091643.182000",
          "091643.185000",
          "091643.188000",
          "091643.191000",
          "091643.194000",
          "091648.175000",
          "091648.178000",
          "091648.181000",
          "091648.184000",
          "091648.187000",
          "091648.190000",
          "091648.193000",
          "091653.175000",
          "091653.178000",
          "091653.181000",
          "091653.184000",
          "091653.187000",
          "091653.190000",
          "091653.193000",
          "091658.175000",
          "091658.178000",
          "091658.181000",
          "091658.184000",
          "091658.187000",
          "091658.190000",
          "091658.193000",
          "091703.175000",
          "091703.178000",
          "091703.181000",
          "091703.184000",
          "091703.187000",
          "091703.190000",
          "091703.193000",
          "091708.175000",
          "091708.178000",
          "091708.181000",
          "091708.184000",
          "091708.187000",
          "091708.190000",
          "091708.193000",
          "091713.175000",
          "091713.178000",
          "091713.181000",
          "091713.184000",
          "091713.187000",
          "091713.191000",
          "091713.194000",
          "091718.176000",
          "091718.179000",
          "091718.182000",
          "091718.185000",
          "091718.188000",
          "091718.191000",
          "091718.194000",
          "091718.197000",
          "091723.175000",
          "091723.178000",
          "091723.181000",
          "091723.184000",
          "091723.187000",
          "091723.190000",
          "091723.193000",
          "091728.175000",
          "091728.178000",
          "091728.181000",
          "091728.184000",
          "091728.187000",
          "091728.190000",
          "091728.193000",
          "091733.175000",
          "091733.178000",
          "091733.181000",
          "091733.184000",
          "091733.197000",
          "091733.200000",
          "091733.203000",
          "091738.175000",
          "091738.178000",
          "091738.181000",
          "091738.184000",
          "091738.187000",
          "091738.190000",
          "091738.193000",
          "091743.175000",
          "091743.178000",
          "091743.181000",
          "091743.184000",
          "091743.187000",
          "091743.190000",
          "091743.193000",
          "091748.175000",
          "091748.178000",
          "091748.181000",
          "091748.184000",
          "091748.187000",
          "091748.190000",
          "091748.193000",
          "091753.176000",
          "091753.179000",
          "091753.182000",
          "091753.185000",
          "091753.188000",
          "091753.191000",
          "091753.194000",
          "091758.175000",
          "091758.178000",
          "091758.181000",
          "091758.184000",
          "091758.187000",
          "091758.190000",
          "091758.193000",
          "091803.175000",
          "091803.178000",
          "091803.181000",
          "091803.184000",
          "091803.187000",
          "091803.190000",
          "091803.193000",
          "091808.175000",
          "091808.178000",
          "091808.181000",
          "091808.184000",
          "091808.187000",
          "091813.175000",
          "091813.178000",
          "091813.181000",
          "091813.184000",
          "091813.187000",
          "091818.175000",
          "091818.178000",
          "091818.181000",
          "091818.184000",
          "091818.187000",
          "091823.175000",
          "091823.178000",
          "091823.186000",
          "091823.189000",
          "091823.192000",
          "091826.811000",
          "091826.815000",
          "091826.818000",
          "091826.822000"
        ],
        "InstanceNumber": [
          1,
          2,
          3,
          4,
          5,
          6,
          7,
          8,
          9,
          10,
          11,
          12,
          13,
          14,
          15,
          16,
          17,
          18,
          19,
          20,
          21,
          22,
          23,
          24,
          25,
          26,
          27,
          28,
          29,
          30,
          31,
          32,
          33,
          34,
          35,
          36,
          37,
          38,
          39,
          40,
          41,
          42,
          43,
          44,
          45,
          46,
          47,
          48,
          49,
          50,
          51,
          52,
          53,
          54,
          55,
          56,
          57,
          58,
          59,
          60,
          61,
          62,
          63,
          64,
          65,
          66,
          67,
          68,
          69,
          70,
          71,
          72,
          73,
          74,
          75,
          76,
          77,
          78,
          79,
          80,
          81,
          82,
          83,
          84,
          85,
          86,
          87,
          88,
          89,
          90,
          91,
          92,
          93,
          94,
          95,
          96,
          97,
          98,
          99,
          100,
          101,
          102,
          103,
          104,
          105,
          106,
          107,
          108,
          109,
          110,
          111,
          112,
          113,
          114,
          115,
          116,
          117,
          118,
          119,
          120,
          121,
          122,
          123,
          124,
          125,
          126,
          127,
          128,
          129,
          130,
          131,
          132,
          133,
          134,
          135,
          136,
          137,
          138,
          139,
          140,
          141,
          142,
          143,
          144,
          145,
          146,
          147,
          148,
          149,
          150,
          151,
          152,
          153,
          154,
          155,
          156,
          157,
          158,
          159,
          160,
          161,
          162,
          163,
          164,
          165,
          166,
          167,
          168,
          169,
          170,
          171,
          172,
          173,
          174,
          175,
          176,
          177,
          178,
          179,
          180,
          181,
          182,
          183,
          184,
          185,
          186,
          187,
          188,
          189,
          190,
          191,
          192
        ],
        "LargestImagePixelValue": [
          34755,
          33545,
          34011,
          32596,
          32215,
          33319,
          32504,
          32466,
          33267,
          31929,
          32477,
          32809,
          32196,
          32419,
          32946,
          33067,
          33763,
          32642,
          32620,
          32277,
          32919,
          33476,
          33118,
          32569,
          32641,
          32331,
          33085,
          33479,
          33302,
          33309,
          32986,
          32416,
          33060,
          33050,
          32887,
          33078,
          32397,
          32399,
          32761,
          32913,
          32172,
          33006,
          32321,
          31765,
          33109,
          32280,
          31651,
          32333,
          32705,
          31941,
          32759,
          31631,
          31820,
          32595,
          32616,
          32173,
          32834,
          32720,
          32940,
          33192,
          32864,
          32867,
          32904,
          32790,
          33177,
          33670,
          33508,
          33005,
          32993,
          32938,
          32691,
          33046,
          32911,
          33174,
          33508,
          32466,
          32283,
          33506,
          32798,
          32490,
          32957,
          32868,
          33239,
