{
  "AcquisitionMatrixPE": 104,
  "AcquisitionNumber": 1,
  "AcquisitionTime": "09:26:56.475000",
  "BandwidthPerPixelPhaseEncode": 16.578,
  "BaseResolution": 104,
  "BodyPartExamined": "BRAIN",
  "ConsistencyInfo": "N4_VE11C_LATEST_20160120",
  "ConversionSoftware": "dcm2niix",
  "ConversionSoftwareVersion": "v1.0.20190902",
  "DerivedVendorReportedEchoSpacing": 0.000580009,
  "DeviceSerialNumber": "166018",
  "DwellTime": 2.1e-06,
  "EchoTime": 0.037,
  "EchoTrainLength": 104,
  "EffectiveEchoSpacing": 0.000580009,
  "FlipAngle": 68,
  "ImageComments": "Unaliased_MB6_PE3_LB",
  "ImageOrientationPatientDICOM": [0.996205, 0.0856026, 0.0157656, -0.0740308, 0.928536, -0.363786],
  "ImageType": [
    "ORIGINAL",
    "PRIMARY",
    "M",
    "MB",
    "ND",
    "MOSAIC"
],
  "ImagingFrequency": 123.191,
  "InPlanePhaseEncodingDirectionDICOM": "COL",
  "InstitutionAddress": "Washington_Place_6_NYC_NYC_US_10003",
  "InstitutionName": "NYU_-_CBI",
  "InstitutionalDepartmentName": "Department",
  "MRAcquisitionType": "2D",
  "MagneticFieldStrength": 3,
  "Manufacturer": "Siemens",
  "ManufacturersModelName": "Prisma",
  "Modality": "MR",
  "MultibandAccelerationFactor": 6,
  "PartialFourier": 1,
  "PatientPosition": "HFS",
  "PercentPhaseFOV": 100,
  "PhaseEncodingDirection": "j",
  "PhaseEncodingSteps": 104,
  "PhaseResolution": 1,
  "PixelBandwidth": 2290,
  "ProcedureStepDescription": "Investigators_Winawer",
  "ProtocolName": "cmrr_mbepi_s6_2mm_66sl_PA_task-prf",
  "PulseSequenceDetails": "%CustomerSeq%_cmrr_mbep2d_bold",
  "ReceiveCoilActiveElements": "HC1-7",
  "ReceiveCoilName": "HeadNeck_64",
  "ReconMatrixPE": 104,
  "RepetitionTime": 1,
  "SAR": 0.068692,
  "ScanOptions": "FS",
  "ScanningSequence": "EP",
  "SequenceName": "epfid2d1_104",
  "SequenceVariant": "SK_SS",
  "SeriesDescription": "cmrr_mbepi_s6_2mm_66sl_PA_task-prf",
  "SeriesNumber": 14,
  "ShimSetting": [253, -12562, -8457, 379, -116, 32, -112, 52],
  "SliceThickness": 2,
  "SliceTiming": [0, 0.535, 0.09, 0.625, 0.18, 0.7125, 0.2675, 0.8025, 0.3575, 0.8925, 0.4475, 0, 0.535, 0.09, 0.625, 0.18, 0.7125, 0.2675, 0.8025, 0.3575, 0.8925, 0.4475, 0, 0.535, 0.09, 0.625, 0.18, 0.7125, 0.2675, 0.8025, 0.3575, 0.8925, 0.4475, 0, 0.535, 0.09, 0.625, 0.18, 0.7125, 0.2675, 0.8025, 0.3575, 0.8925, 0.4475, 0, 0.535, 0.09, 0.625, 0.18, 0.7125, 0.2675, 0.8025, 0.3575, 0.8925, 0.4475, 0, 0.535, 0.09, 0.625, 0.18, 0.7125, 0.2675, 0.8025, 0.3575, 0.8925, 0.4475],
  "SoftwareVersions": "syngo_MR_E11",
  "SpacingBetweenSlices": 2,
  "StationName": "AWP166018",
  "TaskName": "prf",
  "TotalReadoutTime": 0.0597409,
  "TxRefAmp": 221.385,
  "WipMemBlock": "7378edc6-d062-4cc0-82ac-462082a2613c||Sequence: R016 ve11c/master r/8780670; Nov 27 2017 15:05:12 by eja",
  "dcmmeta_affine": [
    [-1.9924092292785645, -0.14806151390075684, 0.09155989438295364, 115.22147369384766],
    [-0.17120517790317535, 1.857072114944458, -0.7224763035774231, -54.160823822021484],
    [0.0315311923623085, 0.727571964263916, 1.8626983165740967, -87.12887573242188],
    [0.0, 0.0, 0.0, 1.0]
],
  "dcmmeta_reorient_transform": [
    [0.0, -1.0, 0.0, 103.0],
    [1.0, 0.0, 0.0, 0.0],
    [0.0, 0.0, 1.0, 0.0],
    [0.0, 0.0, 0.0, 1.0]
],
  "dcmmeta_shape": [104, 104, 66, 192],
  "dcmmeta_slice_dim": 2,
  "dcmmeta_version": 0.6,
  "global": {
    "const": {
      "AccessionNumber": "JU9RZJEV",
      "AcquisitionMatrix": [104, 0, 0, 104],
      "AngioFlag": "N",
      "BitsAllocated": 16,
      "BitsStored": 16,
      "BodyPartExamined": "BRAIN",
      "Columns": 936,
      "EchoNumbers": 1,
      "EchoTime": 37.0,
      "EchoTrainLength": 104,
      "FlipAngle": 68.0,
      "HighBit": 15,
      "ImageOrientationPatient": [0.99620461906818, 0.08560258718834, 0.01576559589405, -0.0740307604653, 0.92853605273638, -0.3637859882866],
      "ImagePositionPatient": [-867.21978845316, -980.88095324883, 277.36400393594],
      "ImageType": [
        "ORIGINAL",
        "PRIMARY",
        "M",
        "MB",
        "ND",
        "MOSAIC"
],
      "ImagedNucleus": "1H",
      "ImagingFrequency": 123.191016,
      "InPlanePhaseEncodingDirection": "COL",
      "MRAcquisitionType": "2D",
      "MagneticFieldStrength": 3.0,
      "Manufacturer": "SIEMENS",
      "ManufacturerModelName": "Prisma",
      "Modality": "MR",
      "NumberOfAverages": 1.0,
      "NumberOfPhaseEncodingSteps": 104,
      "PercentPhaseFieldOfView": 100.0,
      "PercentSampling": 100.0,
      "PerformedProcedureStepStartTime": "085101.370000",
      "PhotometricInterpretation": "MONOCHROME2",
      "PixelBandwidth": 2290.0,
      "PixelRepresentation": 0,
      "PixelSpacing": [2.0, 2.0],
      "ProtocolName": "cmrr_mbepi_s6_2mm_66sl_PA_task-prf",
      "RepetitionTime": 1000.0,
      "Rows": 936,
      "SAR": 0.06869203088308,
      "SamplesPerPixel": 1,
      "ScanOptions": "FS",
      "ScanningSequence": "EP",
      "SequenceName": "epfid2d1_104",
      "SequenceVariant": [
        "SK",
        "SS"
],
      "SeriesDescription": "cmrr_mbepi_s6_2mm_66sl_PA_task-prf",
      "SeriesNumber": 14,
      "SeriesTime": "092752.005000",
      "SliceLocation": -56.307615263165,
      "SliceThickness": 2.0,
      "SmallestImagePixelValue": 0,
      "SoftwareVersions": "syngo MR E11",
      "SpacingBetweenSlices": 2.0000000386761,
      "SpecificCharacterSet": "ISO_IR 100",
      "StudyID": "1",
      "StudyTime": "085101.165000",
      "TransmitCoilName": "Body",
      "VariableFlipAngleFlag": "N",
      "WindowCenterWidthExplanation": "Algo1",
      "dBdt": 0.0},
    "slices": {}
  },
  "time": {
    "samples": {
      "AcquisitionNumber": [1, 2, 3, 4, 5, 6, 7, 8, 9, 10, 11, 12, 13, 14, 15, 16, 17, 18, 19, 20, 21, 22, 23, 24, 25, 26, 27, 28, 29, 30, 31, 32, 33, 34, 35, 36, 37, 38, 39, 40, 41, 42, 43, 44, 45, 46, 47, 48, 49, 50, 51, 52, 53, 54, 55, 56, 57, 58, 59, 60, 61, 62, 63, 64, 65, 66, 67, 68, 69, 70, 71, 72, 73, 74, 75, 76, 77, 78, 79, 80, 81, 82, 83, 84, 85, 86, 87, 88, 89, 90, 91, 92, 93, 94, 95, 96, 97, 98, 99, 100, 101, 102, 103, 104, 105, 106, 107, 108, 109, 110, 111, 112, 113, 114, 115, 116, 117, 118, 119, 120, 121, 122, 123, 124, 125, 126, 127, 128, 129, 130, 131, 132, 133, 134, 135, 136, 137, 138, 139, 140, 141, 142, 143, 144, 145, 146, 147, 148, 149, 150, 151, 152, 153, 154, 155, 156, 157, 158, 159, 160, 161, 162, 163, 164, 165, 166, 167, 168, 169, 170, 171, 172, 173, 174, 175, 176, 177, 178, 179, 180, 181, 182, 183, 184, 185, 186, 187, 188, 189, 190, 191, 192],
      "AcquisitionTime": ["092656.475000", "092657.475000", "092658.475000", "092659.475000", "092700.475000", "092701.475000", "092702.475000", "092703.475000", "092704.475000", "092705.475000", "092706.475000", "092707.475000", "092708.475000", "092709.475000", "092710.475000", "092711.475000", "092712.475000", "092713.475000", "092714.475000", "092715.475000", "092716.475000", "092717.475000", "092718.475000", "092719.475000", "092720.475000", "092721.475000", "092722.475000", "092723.475000", "092724.475000", "092725.475000", "092726.475000", "092727.475000", "092728.475000", "092729.475000", "092730.475000", "092731.475000", "092732.475000", "092733.475000", "092734.475000", "092735.475000", "092736.475000", "092737.475000", "092738.475000", "092739.475000", "092740.475000", "092741.475000", "092742.475000", "092743.475000", "092744.475000", "092745.475000", "092746.475000", "092747.475000", "092748.475000", "092749.475000", "092750.475000", "092751.475000", "092752.475000", "092753.475000", "092754.475000", "092755.475000", "092756.475000", "092757.475000", "092758.475000", "092759.475000", "092800.475000", "092801.475000", "092802.475000", "092803.475000", "092804.475000", "092805.475000", "092806.475000", "092807.475000", "092808.475000", "092809.475000", "092810.475000", "092811.475000", "092812.475000", "092813.475000", "092814.475000", "092815.475000", "092816.475000", "092817.475000", "092818.475000", "092819.475000", "092820.475000", "092821.475000", "092822.475000", "092823.475000", "092824.475000", "092825.475000", "092826.475000", "092827.475000", "092828.475000", "092829.475000", "092830.475000", "092831.475000", "092832.475000", "092833.475000", "092834.475000", "092835.475000", "092836.475000", "092837.475000", "092838.475000", "092839.475000", "092840.475000", "092841.475000", "092842.475000", "092843.475000", "092844.475000", "092845.475000", "092846.475000", "092847.475000", "092848.475000", "092849.475000", "092850.475000", "092851.475000", "092852.475000", "092853.475000", "092854.475000", "092855.475000", "092856.475000", "092857.475000", "092858.475000", "092859.475000", "092900.475000", "092901.475000", "092902.475000", "092903.475000", "092904.475000", "092905.475000", "092906.475000", "092907.475000", "092908.475000", "092909.475000", "092910.475000", "092911.475000", "092912.475000", "092913.475000", "092914.475000", "092915.475000", "092916.475000", "092917.475000", "092918.475000", "092919.475000", "092920.475000", "092921.475000", "092922.475000", "092923.475000", "092924.475000", "092925.475000", "092926.475000", "092927.475000", "092928.475000", "092929.475000", "092930.475000", "092931.475000", "092932.475000", "092933.475000", "092934.475000", "092935.475000", "092936.475000", "092937.475000", "092938.475000", "092939.475000", "092940.475000", "092941.475000", "092942.475000", "092943.475000", "092944.475000", "092945.475000", "092946.475000", "092947.475000", "092948.475000", "092949.475000", "092950.475000", "092951.475000", "092952.475000", "092953.475000", "092954.475000", "092955.475000", "092956.475000", "092957.475000", "092958.475000", "092959.475000", "093000.475000", "093001.475000", "093002.475000", "093003.475000", "093004.475000", "093005.475000", "093006.475000", "093007.475000"],
      "ContentTime": ["092752.007000", "092752.011000", "092752.014000", "092752.017000", "092752.020000", "092752.032000", "092752.035000", "092757.005000", "092757.008000", "092757.019000", "092757.022000", "092757.026000", "092757.030000", "092757.033000", "092802.005000", "092802.008000", "092802.011000", "092802.014000", "092802.017000", "092802.020000", "092802.023000", "092807.006000", "092807.010000", "092807.014000", "092807.020000", "092807.024000", "092807.027000", "092807.031000", "092812.006000", "092812.009000", "092812.012000", "092812.015000", "092812.018000", "092812.021000", "092812.024000", "092817.005000", "092817.008000", "092817.011000", "092817.014000", "092817.017000", "092817.020000", "092817.023000", "092822.007000", "092822.010000", "092822.013000", "092822.016000", "092822.019000", "092822.022000", "092822.025000", "092827.006000", "092827.009000", "092827.012000", "092827.015000", "092827.018000", "092827.031000", "092827.034000", "092832.005000", "092832.015000", "092832.018000", "092832.023000", "092832.026000", "092832.029000", "092832.032000", "092837.005000", "092837.008000", "092837.011000", "092837.014000", "092837.017000", "092837.020000", "092837.023000", "092842.006000", "092842.009000", "092842.012000", "092842.015000", "092842.018000", "092842.021000", "092842.024000", "092842.027000", "092847.006000", "092847.009000", "092847.015000", "092847.018000", "092847.021000", "092847.024000", "092847.027000", "092852.005000", "092852.008000", "092852.011000", "092852.014000", "092852.017000", "092852.020000", "092852.023000", "092857.006000", "092857.009000", "092857.012000", "092857.015000", "092857.018000", "092857.021000", "092857.024000", "092902.006000", "092902.009000", "092902.012000", "092902.015000", "092902.018000", "092902.021000", "092902.024000", "092907.005000", "092907.008000", "092907.011000", "092907.014000", "092907.029000", "092907.032000", "092907.035000", "092912.005000", "092912.008000", "092912.011000", "092912.014000", "092912.017000", "092912.020000", "092912.023000", "092917.006000", "092917.009000", "092917.012000", "092917.015000", "092917.018000", "092917.023000", "092917.026000", "092922.006000", "092922.009000", "092922.012000", "092922.015000", "092922.018000", "092922.021000", "092922.024000", "092927.005000", "092927.008000", "092927.011000", "092927.014000", "092927.017000", "092927.020000", "092927.023000", "092932.006000", "092932.009000", "092932.021000", "092932.024000", "092932.027000", "092932.030000", "092932.033000", "092937.006000", "092937.009000", "092937.012000", "092937.015000", "092937.018000", "092937.021000", "092937.024000", "092942.005000", "092942.008000", "092942.011000", "092942.014000", "092942.017000", "092942.020000", "092942.023000", "092942.026000", "092947.005000", "092947.008000", "092947.011000", "092947.014000", "092947.017000", "092947.020000", "092952.006000", "092952.009000", "092952.012000", "092952.015000", "092952.018000", "092957.006000", "092957.009000", "092957.012000", "092957.015000", "092957.018000", "093002.005000", "093002.008000", "093002.011000", "093002.014000", "093002.017000", "093007.006000", "093007.009000", "093007.012000", "093007.015000", "093007.018000", "093009.378000", "093009.381000", "093009.385000"],
      "InstanceCreationTime": ["092752.007000", "092752.011000", "092752.014000", "092752.017000", "092752.020000", "092752.032000", "092752.035000", "092757.005000", "092757.008000", "092757.019000", "092757.022000", "092757.026000", "092757.030000", "092757.033000", "092802.005000", "092802.008000", "092802.011000", "092802.014000", "092802.017000", "092802.020000", "092802.023000", "092807.006000", "092807.010000", "092807.014000", "092807.020000", "092807.024000", "092807.027000", "092807.031000", "092812.006000", "092812.009000", "092812.012000", "092812.015000", "092812.018000", "092812.021000", "092812.024000", "092817.005000", "092817.008000", "092817.011000", "092817.014000", "092817.017000", "092817.020000", "092817.023000", "092822.007000", "092822.010000", "092822.013000", "092822.016000", "092822.019000", "092822.022000", "092822.025000", "092827.006000", "092827.009000", "092827.012000", "092827.015000", "092827.018000", "092827.031000", "092827.034000", "092832.005000", "092832.015000", "092832.018000", "092832.023000", "092832.026000", "092832.029000", "092832.032000", "092837.005000", "092837.008000", "092837.011000", "092837.014000", "092837.017000", "092837.020000", "092837.023000", "092842.006000", "092842.009000", "092842.012000", "092842.015000", "092842.018000", "092842.021000", "092842.024000", "092842.027000", "092847.006000", "092847.009000", "092847.015000", "092847.018000", "092847.021000", "092847.024000", "092847.027000", "092852.005000", "092852.008000", "092852.011000", "092852.014000", "092852.017000", "092852.020000", "092852.023000", "092857.006000", "092857.009000", "092857.012000", "092857.015000", "092857.018000", "092857.021000", "092857.024000", "092902.006000", "092902.009000", "092902.012000", "092902.015000", "092902.018000", "092902.021000", "092902.024000", "092907.005000", "092907.008000", "092907.011000", "092907.014000", "092907.029000", "092907.032000", "092907.035000", "092912.005000", "092912.008000", "092912.011000", "092912.014000", "092912.017000", "092912.020000", "092912.023000", "092917.006000", "092917.009000", "092917.012000", "092917.015000", "092917.018000", "092917.023000", "092917.026000", "092922.006000", "092922.009000", "092922.012000", "092922.015000", "092922.018000", "092922.021000", "092922.024000", "092927.005000", "092927.008000", "092927.011000", "092927.014000", "092927.017000", "092927.020000", "092927.023000", "092932.006000", "092932.009000", "092932.021000", "092932.024000", "092932.027000", "092932.030000", "092932.033000", "092937.006000", "092937.009000", "092937.012000", "092937.015000", "092937.018000", "092937.021000", "092937.024000", "092942.005000", "092942.008000", "092942.011000", "092942.014000", "092942.017000", "092942.020000", "092942.023000", "092942.026000", "092947.005000", "092947.008000", "092947.011000", "092947.014000", "092947.017000", "092947.020000", "092952.006000", "092952.009000", "092952.012000", "092952.015000", "092952.018000", "092957.006000", "092957.009000", "092957.012000", "092957.015000", "092957.018000", "093002.005000", "093002.008000", "093002.011000", "093002.014000", "093002.017000", "093007.006000", "093007.009000", "093007.012000", "093007.015000", "093007.018000", "093009.378000", "093009.381000", "093009.385000"],
      "InstanceNumber": [1, 2, 3, 4, 5, 6, 7, 8, 9, 10, 11, 12, 13, 14, 15, 16, 17, 18, 19, 20, 21, 22, 23, 24, 25, 26, 27, 28, 29, 30, 31, 32, 33, 34, 35, 36, 37, 38, 39, 40, 41, 42, 43, 44, 45, 46, 47, 48, 49, 50, 51, 52, 53, 54, 55, 56, 57, 58, 59, 60, 61, 62, 63, 64, 65, 66, 67, 68, 69, 70, 71, 72, 73, 74, 75, 76, 77, 78, 79, 80, 81, 82, 83, 84, 85, 86, 87, 88, 89, 90, 91, 92, 93, 94, 95, 96, 97, 98, 99, 100, 101, 102, 103, 104, 105, 106, 107, 108, 109, 110, 111, 112, 113, 114, 115, 116, 117, 118, 119, 120, 121, 122, 123, 124, 125, 126, 127, 128, 129, 130, 131, 132, 133, 134, 135, 136, 137, 138, 139, 140, 141, 142, 143, 144, 145, 146, 147, 148, 149, 150, 151, 152, 153, 154, 155, 156, 157, 158, 159, 160, 161, 162, 163, 164, 165, 166, 167, 168, 169, 170, 171, 172, 173, 174, 175, 176, 177, 178, 179, 180, 181, 182, 183, 184, 185, 186, 187, 188, 189, 190, 191, 192],
      "LargestImagePixelValue": [34676, 33515, 33896, 33457, 32728, 32746, 32737, 33501, 32426, 32635, 32602, 32847, 33306, 32437, 32737, 32030, 33451, 32576, 32500, 32826, 32289, 32312, 32658, 32420, 32605, 32415, 32757, 32227, 32461, 32995, 32441, 33206, 33237, 33142, 33383, 32495, 33067, 32108, 33511, 33180, 32465, 32988, 33110, 32537, 33196, 33065, 33177, 32707, 32626, 34074, 32522, 32979, 33597, 32995, 33290, 32771, 34029, 33315, 33352, 32686, 33017, 33507, 32820, 32403, 32872, 33284, 33588, 33684, 33639, 32934, 32717, 33654, 33305, 33647, 32833, 32721, 33451, 32565, 33693, 33438, 32453, 34127, 33023, 33089, 33298, 33420, 34022, 32748, 33048, 33600, 33817, 34252, 33083, 32536, 34199, 32628, 32193, 34066, 32787, 32978, 34055, 33227, 33095, 34509, 32893, 32778, 34041, 32482, 33334, 33695, 32541, 32703, 33500, 32545, 33715, 33939, 32788, 33083, 33837, 33444, 33997, 34390, 32532, 33218, 34230, 32550, 32485, 33833, 32469, 33517, 33535, 32950, 33504, 33866, 32615, 32610, 33675, 32258, 32852, 33332, 33650, 32143, 33913, 33487, 32395, 32610, 33622, 33136, 33649, 33804, 33512, 32984, 32673, 34405, 33236, 33409, 34024, 32325, 33159, 34146, 32699, 32524, 33381, 32331, 32544, 33549, 33771, 32733, 33106, 33531, 32279, 32482, 32729, 32739, 32901, 32601, 32565, 32668, 32314, 33334, 32432, 32501, 33256, 33427, 32933, 33372, 32541, 32951, 33984, 32396, 32254, 33564],
      "WindowCenter": [10337.0, 10276.0, 10264.0, 10254.0, 10252.0, 10261.0, 10256.0, 10292.0, 10270.0, 10272.0, 10273.0, 10271.0, 10274.0, 10248.0, 10256.0, 10243.0, 10301.0, 10292.0, 10307.0, 10312.0, 10294.0, 10296.0, 10273.0, 10250.0, 10247.0, 10242.0, 10235.0, 10232.0, 10222.0, 10227.0, 10222.0, 10242.0, 10240.0, 10249.0, 10251.0, 10238.0, 10245.0, 10228.0, 10247.0, 10241.0, 10234.0, 10236.0, 10235.0, 10222.0, 10224.0, 10217.0, 10229.0, 10218.0, 10225.0, 10257.0, 10229.0, 10234.0, 10262.0, 10260.0, 10276.0, 10273.0, 10298.0, 10304.0, 10306.0, 10307.0, 10300.0, 10293.0, 10291.0, 10272.0, 10274.0, 10286.0, 10284.0, 10267.0, 10268.0, 10254.0, 10240.0, 10255.0, 10258.0, 10257.0, 10256.0, 10248.0, 10260.0, 10241.0, 10252.0, 10258.0, 10248.0, 10290.0, 10281.0, 10280.0, 10280.0, 10262.0, 10274.0, 10247.0, 10236.0, 10239.0, 10249.0, 10242.0, 10239.0, 10223.0, 10262.0, 10233.0, 10232.0, 10263.0, 10249.0, 10252.0, 10264.0, 10268.0, 10255.0, 10286.0, 10271.0, 10264.0, 10281.0, 10264.0, 10252.0, 10263.0, 10239.0, 10236.0, 10246.0, 10238.0, 10239.0, 10252.0, 10224.0, 10227.0, 10246.0, 10249.0, 10254.0, 10262.0, 10242.0, 10244.0, 10264.0, 10241.0, 10238.0, 10261.0, 10242.0, 10258.0, 10260.0, 10263.0, 10258.0, 10273.0, 10244.0, 10240.0, 10257.0, 10243.0, 10246.0, 10243.0, 10249.0, 10229.0, 10249.0, 10251.0, 10243.0, 10242.0, 10258.0, 10247.0, 10252.0, 10246.0, 10250.0, 10237.0, 10222.0, 10257.0, 10246.0, 10253.0, 10266.0, 10256.0, 10263.0, 10290.0, 10260.0, 10254.0, 10272.0, 10263.0, 10268.0, 10283.0, 10282.0, 10257.0, 10271.0, 10295.0, 10289.0, 10295.0, 10296.0, 10285.0, 10271.0, 10264.0, 10275.0, 10285.0, 10272.0, 10290.0, 10271.0, 10268.0, 10263.0, 10262.0, 10248.0, 10269.0, 10253.0, 10263.0, 10285.0, 10260.0, 10254.0, 10275.0],
      "WindowWidth": [22082.0, 21938.0, 21906.0, 21882.0, 21882.0, 21901.0, 21892.0, 21964.0, 21926.0, 21926.0, 21927.0, 21917.0, 21925.0, 21874.0, 21888.0, 21864.0, 21995.0, 21974.0, 22006.0, 22016.0, 21976.0, 21978.0, 21921.0, 21871.0, 21860.0, 21851.0, 21835.0, 21830.0, 21809.0, 21818.0, 21809.0, 21852.0, 21843.0, 21864.0, 21873.0, 21845.0, 21856.0, 21826.0, 21860.0, 21846.0, 21837.0, 21836.0, 21833.0, 21808.0, 21809.0, 21793.0, 21817.0, 21800.0, 21811.0, 21872.0, 21822.0, 21832.0, 21892.0, 21893.0, 21929.0, 21927.0, 21978.0, 21998.0, 22001.0, 22006.0, 21988.0, 21968.0, 21962.0, 21926.0, 21929.0, 21950.0, 21941.0, 21904.0, 21905.0, 21880.0, 21849.0, 21875.0, 21884.0, 21881.0, 21882.0, 21866.0, 21887.0, 21853.0, 21872.0, 21886.0, 21871.0, 21959.0, 21941.0, 21938.0, 21938.0, 21896.0, 21915.0, 21863.0, 21835.0, 21835.0, 21856.0, 21841.0, 21841.0, 21811.0, 21886.0, 21832.0, 21831.0, 21889.0, 21869.0, 21872.0, 21893.0, 21908.0, 21882.0, 21941.0, 21918.0, 21901.0, 21931.0, 21903.0, 21870.0, 21889.0, 21846.0, 21835.0, 21851.0, 21844.0, 21837.0, 21862.0, 21811.0, 21813.0, 21851.0, 21862.0, 21866.0, 21882.0, 21851.0, 21846.0, 21887.0, 21844.0, 21839.0, 21881.0, 21849.0, 21878.0, 21883.0, 21897.0, 21877.0, 21907.0, 21854.0, 21843.0, 21878.0, 21854.0, 21854.0, 21844.0, 21852.0, 21820.0, 21855.0, 21861.0, 21852.0, 21848.0, 21873.0, 21853.0, 21866.0, 21848.0, 21857.0, 21835.0, 21807.0, 21873.0, 21859.0, 21875.0, 21900.0, 21888.0, 21898.0, 21951.0, 21895.0, 21882.0, 21918.0, 21903.0, 21911.0, 21935.0, 21931.0, 21887.0, 21918.0, 21968.0, 21967.0, 21979.0, 21981.0, 21949.0, 21914.0, 21900.0, 21926.0, 21947.0, 21922.0, 21954.0, 21920.0, 21910.0, 21892.0, 21891.0, 21861.0, 21904.0, 21876.0, 21894.0, 21938.0, 21891.0, 21877.0, 21912.0]
    },
    "slices": {}
  },
  "NumberOfVolumes": 192
}