{
  "AcquisitionMatrixPE": 104,
  "AcquisitionNumber": 1,
  "AcquisitionTime": "15:05:51.457500",
  "BandwidthPerPixelPhaseEncode": 16.578,
  "BaseResolution": 104,
  "BodyPartExamined": "BRAIN",
  "ConsistencyInfo": "N4_VE11C_LATEST_20160120",
  "ConversionSoftware": "dcm2niix",
  "ConversionSoftwareVersion": "v1.0.20190902",
  "DerivedVendorReportedEchoSpacing": 0.000580009,
  "DeviceSerialNumber": "166018",
  "DwellTime": 2.1e-06,
  "EchoTime": 0.037,
  "EchoTrainLength": 104,
  "EffectiveEchoSpacing": 0.000580009,
  "FlipAngle": 68,
  "ImageComments": "Unaliased_MB6_PE3_LB",
  "ImageOrientationPatientDICOM": [0.999903, 0.00927368, 0.0104104, -0.00698073, 0.979372, -0.201945],
  "ImageType": [
    "ORIGINAL",
    "PRIMARY",
    "M",
    "MB",
    "ND",
    "MOSAIC"
],
  "ImagingFrequency": 123.191,
  "InPlanePhaseEncodingDirectionDICOM": "COL",
  "InstitutionAddress": "Washington_Place_6_NYC_NYC_US_10003",
  "InstitutionName": "NYU_-_CBI",
  "InstitutionalDepartmentName": "Department",
  "MRAcquisitionType": "2D",
  "MagneticFieldStrength": 3,
  "Manufacturer": "Siemens",
  "ManufacturersModelName": "Prisma",
  "Modality": "MR",
  "MultibandAccelerationFactor": 6,
  "PartialFourier": 1,
  "PatientPosition": "HFS",
  "PercentPhaseFOV": 100,
  "PhaseEncodingDirection": "j",
  "PhaseEncodingSteps": 104,
  "PhaseResolution": 1,
  "PixelBandwidth": 2290,
  "ProcedureStepDescription": "Investigators_Winawer",
  "ProtocolName": "cmrr_mbepi_task_prf",
  "PulseSequenceDetails": "%CustomerSeq%_cmrr_mbep2d_bold",
  "ReceiveCoilActiveElements": "HC1-7",
  "ReceiveCoilName": "HeadNeck_64",
  "ReconMatrixPE": 104,
  "RepetitionTime": 1,
  "SAR": 0.0698377,
  "ScanOptions": "FS",
  "ScanningSequence": "EP",
  "SequenceName": "epfid2d1_104",
  "SequenceVariant": "SK_SS",
  "SeriesDescription": "cmrr_mbepi_task_prf",
  "SeriesNumber": 12,
  "ShimSetting": [251, -12561, -8501, 312, -65, -71, -3, 16],
  "SliceThickness": 2,
  "SliceTiming": [0, 0.535, 0.09, 0.625, 0.18, 0.715, 0.2675, 0.8025, 0.3575, 0.8925, 0.4475, 0, 0.535, 0.09, 0.625, 0.18, 0.715, 0.2675, 0.8025, 0.3575, 0.8925, 0.4475, 0, 0.535, 0.09, 0.625, 0.18, 0.715, 0.2675, 0.8025, 0.3575, 0.8925, 0.4475, 0, 0.535, 0.09, 0.625, 0.18, 0.715, 0.2675, 0.8025, 0.3575, 0.8925, 0.4475, 0, 0.535, 0.09, 0.625, 0.18, 0.715, 0.2675, 0.8025, 0.3575, 0.8925, 0.4475, 0, 0.535, 0.09, 0.625, 0.18, 0.715, 0.2675, 0.8025, 0.3575, 0.8925, 0.4475],
  "SoftwareVersions": "syngo_MR_E11",
  "SpacingBetweenSlices": 2,
  "StationName": "AWP166018",
  "TaskName": "prf",
  "TotalReadoutTime": 0.0597409,
  "TxRefAmp": 236.478,
  "WipMemBlock": "6dc8b305-f712-4a6f-8dcd-7abb824dd64b||Sequence: R016 ve11c/master r/8780670; Nov 27 2017 15:05:12 by eja",
  "dcmmeta_affine": [
    [-1.9998055696487427, -0.013961469754576683, 0.024136774241924286, 108.89139556884766],
    [-0.018547354266047478, 1.9587438106536865, -0.4037059247493744, -71.5549087524414],
    [0.02082071639597416, 0.4038905203342438, 1.958682894706726, -66.21240234375],
    [0.0, 0.0, 0.0, 1.0]
],
  "dcmmeta_reorient_transform": [
    [0.0, -1.0, 0.0, 103.0],
    [1.0, 0.0, 0.0, 0.0],
    [0.0, 0.0, 1.0, 0.0],
    [0.0, 0.0, 0.0, 1.0]
],
  "dcmmeta_shape": [104, 104, 66, 192],
  "dcmmeta_slice_dim": 2,
  "dcmmeta_version": 0.6,
  "global": {
    "const": {
      "AccessionNumber": "jk1gg4fq",
      "AcquisitionMatrix": [104, 0, 0, 104],
      "AngioFlag": "N",
      "BitsAllocated": 16,
      "BitsStored": 16,
      "BodyPartExamined": "BRAIN",
      "Columns": 936,
      "EchoNumbers": 1,
      "EchoTime": 37.0,
      "EchoTrainLength": 104,
      "FlipAngle": 68.0,
      "HighBit": 15,
      "ImageOrientationPatient": [0.99990280696005, 0.00927367680193, 0.01041035791864, -0.0069807347996, 0.97937193190112, -0.2019452607662],
      "ImagePositionPatient": [-933.56452649544, -952.74885567928, 134.74536184488],
      "ImageType": [
        "ORIGINAL",
        "PRIMARY",
        "M",
        "MB",
        "ND",
        "MOSAIC"
],
      "ImagedNucleus": "1H",
      "ImagingFrequency": 123.19106,
      "InPlanePhaseEncodingDirection": "COL",
      "MRAcquisitionType": "2D",
      "MagneticFieldStrength": 3.0,
      "Manufacturer": "SIEMENS",
      "ManufacturerModelName": "Prisma",
      "Modality": "MR",
      "NumberOfAverages": 1.0,
      "NumberOfPhaseEncodingSteps": 104,
      "PercentPhaseFieldOfView": 100.0,
      "PercentSampling": 100.0,
      "PerformedProcedureStepStartTime": "144213.335000",
      "PhotometricInterpretation": "MONOCHROME2",
      "PixelBandwidth": 2290.0,
      "PixelRepresentation": 0,
      "PixelSpacing": [2.0, 2.0],
      "ProtocolName": "cmrr_mbepi_task_prf",
      "RepetitionTime": 1000.0,
      "Rows": 936,
      "SAR": 0.06983771828348,
      "SamplesPerPixel": 1,
      "ScanOptions": "FS",
      "ScanningSequence": "EP",
      "SequenceName": "epfid2d1_104",
      "SequenceVariant": [
        "SK",
        "SS"
],
      "SeriesDescription": "cmrr_mbepi_task_prf",
      "SeriesNumber": 12,
      "SeriesTime": "150652.272000",
      "SliceLocation": -49.086837146501,
      "SliceThickness": 2.0,
      "SmallestImagePixelValue": 0,
      "SoftwareVersions": "syngo MR E11",
      "SpacingBetweenSlices": 1.9999999393285,
      "SpecificCharacterSet": "ISO_IR 100",
      "StudyID": "1",
      "StudyTime": "144213.272000",
      "TransmitCoilName": "Body",
      "VariableFlipAngleFlag": "N",
      "WindowCenterWidthExplanation": "Algo1",
      "dBdt": 0.0},
    "slices": {}
  },
  "time": {
    "samples": {
      "AcquisitionNumber": [1, 2, 3, 4, 5, 6, 7, 8, 9, 10, 11, 12, 13, 14, 15, 16, 17, 18, 19, 20, 21, 22, 23, 24, 25, 26, 27, 28, 29, 30, 31, 32, 33, 34, 35, 36, 37, 38, 39, 40, 41, 42, 43, 44, 45, 46, 47, 48, 49, 50, 51, 52, 53, 54, 55, 56, 57, 58, 59, 60, 61, 62, 63, 64, 65, 66, 67, 68, 69, 70, 71, 72, 73, 74, 75, 76, 77, 78, 79, 80, 81, 82, 83, 84, 85, 86, 87, 88, 89, 90, 91, 92, 93, 94, 95, 96, 97, 98, 99, 100, 101, 102, 103, 104, 105, 106, 107, 108, 109, 110, 111, 112, 113, 114, 115, 116, 117, 118, 119, 120, 121, 122, 123, 124, 125, 126, 127, 128, 129, 130, 131, 132, 133, 134, 135, 136, 137, 138, 139, 140, 141, 142, 143, 144, 145, 146, 147, 148, 149, 150, 151, 152, 153, 154, 155, 156, 157, 158, 159, 160, 161, 162, 163, 164, 165, 166, 167, 168, 169, 170, 171, 172, 173, 174, 175, 176, 177, 178, 179, 180, 181, 182, 183, 184, 185, 186, 187, 188, 189, 190, 191, 192],
      "AcquisitionTime": ["150551.457500", "150552.457500", "150553.457500", "150554.457500", "150555.457500", "150556.457500", "150557.457500", "150558.457500", "150559.457500", "150600.457500", "150601.457500", "150602.457500", "150603.457500", "150604.457500", "150605.457500", "150606.457500", "150607.457500", "150608.457500", "150609.457500", "150610.457500", "150611.457500", "150612.457500", "150613.457500", "150614.457500", "150615.457500", "150616.457500", "150617.457500", "150618.457500", "150619.457500", "150620.457500", "150621.457500", "150622.457500", "150623.457500", "150624.457500", "150625.457500", "150626.457500", "150627.457500", "150628.457500", "150629.457500", "150630.457500", "150631.457500", "150632.457500", "150633.457500", "150634.457500", "150635.457500", "150636.457500", "150637.457500", "150638.457500", "150639.457500", "150640.457500", "150641.457500", "150642.457500", "150643.457500", "150644.457500", "150645.457500", "150646.457500", "150647.457500", "150648.457500", "150649.457500", "150650.457500", "150651.457500", "150652.457500", "150653.457500", "150654.457500", "150655.457500", "150656.457500", "150657.457500", "150658.457500", "150659.457500", "150700.457500", "150701.457500", "150702.457500", "150703.457500", "150704.457500", "150705.457500", "150706.457500", "150707.457500", "150708.457500", "150709.457500", "150710.457500", "150711.457500", "150712.457500", "150713.457500", "150714.457500", "150715.457500", "150716.457500", "150717.457500", "150718.457500", "150719.457500", "150720.457500", "150721.457500", "150722.457500", "150723.457500", "150724.457500", "150725.457500", "150726.457500", "150727.457500", "150728.457500", "150729.457500", "150730.457500", "150731.457500", "150732.457500", "150733.457500", "150734.457500", "150735.457500", "150736.457500", "150737.457500", "150738.457500", "150739.457500", "150740.457500", "150741.457500", "150742.457500", "150743.457500", "150744.457500", "150745.457500", "150746.457500", "150747.457500", "150748.457500", "150749.457500", "150750.457500", "150751.457500", "150752.457500", "150753.457500", "150754.457500", "150755.457500", "150756.457500", "150757.457500", "150758.457500", "150759.457500", "150800.457500", "150801.457500", "150802.457500", "150803.457500", "150804.457500", "150805.457500", "150806.457500", "150807.457500", "150808.457500", "150809.457500", "150810.457500", "150811.457500", "150812.457500", "150813.457500", "150814.457500", "150815.457500", "150816.457500", "150817.457500", "150818.457500", "150819.457500", "150820.457500", "150821.457500", "150822.457500", "150823.457500", "150824.457500", "150825.457500", "150826.457500", "150827.457500", "150828.457500", "150829.457500", "150830.457500", "150831.457500", "150832.457500", "150833.457500", "150834.457500", "150835.457500", "150836.457500", "150837.457500", "150838.457500", "150839.457500", "150840.457500", "150841.457500", "150842.457500", "150843.457500", "150844.457500", "150845.457500", "150846.457500", "150847.457500", "150848.457500", "150849.457500", "150850.457500", "150851.457500", "150852.457500", "150853.457500", "150854.457500", "150855.457500", "150856.457500", "150857.457500", "150858.457500", "150859.457500", "150900.457500", "150901.457500", "150902.457500"],
      "ContentTime": ["150652.275000", "150652.286000", "150652.289000", "150652.292000", "150652.295000", "150652.298000", "150652.301000", "150657.274000", "150657.277000", "150657.280000", "150657.283000", "150657.286000", "150657.289000", "150657.292000", "150702.274000", "150702.277000", "150702.280000", "150702.283000", "150702.286000", "150702.289000", "150702.292000", "150707.274000", "150707.277000", "150707.280000", "150707.283000", "150707.286000", "150707.289000", "150707.292000", "150712.274000", "150712.277000", "150712.280000", "150712.283000", "150712.286000", "150712.289000", "150712.292000", "150717.274000", "150717.277000", "150717.281000", "150717.284000", "150717.287000", "150717.290000", "150717.293000", "150722.274000", "150722.277000", "150722.280000", "150722.291000", "150722.294000", "150722.297000", "150722.300000", "150727.273000", "150727.276000", "150727.279000", "150727.282000", "150727.285000", "150727.288000", "150727.291000", "150727.294000", "150732.274000", "150732.277000", "150732.280000", "150732.283000", "150732.286000", "150732.289000", "150732.292000", "150737.274000", "150737.277000", "150737.280000", "150737.283000", "150737.286000", "150737.289000", "150737.292000", "150742.274000", "150742.277000", "150742.280000", "150742.283000", "150742.286000", "150742.289000", "150742.292000", "150747.274000", "150747.284000", "150747.287000", "150747.290000", "150747.293000", "150747.296000", "150747.299000", "150752.274000", "150752.277000", "150752.280000", "150752.283000", "150752.286000", "150752.289000", "150752.292000", "150757.274000", "150757.277000", "150757.280000", "150757.283000", "150757.286000", "150757.289000", "150757.292000", "150802.273000", "150802.276000", "150802.279000", "150802.282000", "150802.285000", "150802.288000", "150802.291000", "150807.274000", "150807.277000", "150807.280000", "150807.283000", "150807.286000", "150807.289000", "150807.292000", "150812.274000", "150812.277000", "150812.280000", "150812.283000", "150812.286000", "150812.289000", "150812.292000", "150817.274000", "150817.277000", "150817.280000", "150817.283000", "150817.286000", "150817.289000", "150817.292000", "150822.274000", "150822.277000", "150822.280000", "150822.283000", "150822.286000", "150822.289000", "150822.292000", "150827.274000", "150827.277000", "150827.280000", "150827.283000", "150827.286000", "150827.289000", "150827.292000", "150832.274000", "150832.277000", "150832.280000", "150832.294000", "150832.297000", "150832.300000", "150832.303000", "150837.273000", "150837.276000", "150837.288000", "150837.291000", "150837.294000", "150837.297000", "150837.300000", "150837.303000", "150842.274000", "150842.277000", "150842.280000", "150842.283000", "150842.286000", "150842.289000", "150842.292000", "150847.274000", "150847.277000", "150847.280000", "150847.283000", "150847.286000", "150847.289000", "150847.292000", "150852.274000", "150852.277000", "150852.280000", "150852.283000", "150852.286000", "150852.289000", "150852.292000", "150857.274000", "150857.277000", "150857.280000", "150857.283000", "150857.286000", "150857.289000", "150857.292000", "150902.274000", "150902.277000", "150902.280000", "150902.283000", "150902.286000", "150904.645000", "150904.648000", "150904.652000"],
      "InstanceCreationTime": ["150652.275000", "150652.286000", "150652.289000", "150652.292000", "150652.295000", "150652.298000", "150652.301000", "150657.274000", "150657.277000", "150657.280000", "150657.283000", "150657.286000", "150657.289000", "150657.292000", "150702.274000", "150702.277000", "150702.280000", "150702.283000", "150702.286000", "150702.289000", "150702.292000", "150707.274000", "150707.277000", "150707.280000", "150707.283000", "150707.286000", "150707.289000", "150707.292000", "150712.274000", "150712.277000", "150712.280000", "150712.283000", "150712.286000", "150712.289000", "150712.292000", "150717.274000", "150717.277000", "150717.281000", "150717.284000", "150717.287000", "150717.290000", "150717.293000", "150722.274000", "150722.277000", "150722.280000", "150722.291000", "150722.294000", "150722.297000", "150722.300000", "150727.273000", "150727.276000", "150727.279000", "150727.282000", "150727.285000", "150727.288000", "150727.291000", "150727.294000", "150732.274000", "150732.277000", "150732.280000", "150732.283000", "150732.286000", "150732.289000", "150732.292000", "150737.274000", "150737.277000", "150737.280000", "150737.283000", "150737.286000", "150737.289000", "150737.292000", "150742.274000", "150742.277000", "150742.280000", "150742.283000", "150742.286000", "150742.289000", "150742.292000", "150747.274000", "150747.284000", "150747.287000", "150747.290000", "150747.293000", "150747.296000", "150747.299000", "150752.274000", "150752.277000", "150752.280000", "150752.283000", "150752.286000", "150752.289000", "150752.292000", "150757.274000", "150757.277000", "150757.280000", "150757.283000", "150757.286000", "150757.289000", "150757.292000", "150802.273000", "150802.276000", "150802.279000", "150802.282000", "150802.285000", "150802.288000", "150802.291000", "150807.274000", "150807.277000", "150807.280000", "150807.283000", "150807.286000", "150807.289000", "150807.292000", "150812.274000", "150812.277000", "150812.280000", "150812.283000", "150812.286000", "150812.289000", "150812.292000", "150817.274000", "150817.277000", "150817.280000", "150817.283000", "150817.286000", "150817.289000", "150817.292000", "150822.274000", "150822.277000", "150822.280000", "150822.283000", "150822.286000", "150822.289000", "150822.292000", "150827.274000", "150827.277000", "150827.280000", "150827.283000", "150827.286000", "150827.289000", "150827.292000", "150832.274000", "150832.277000", "150832.280000", "150832.294000", "150832.297000", "150832.300000", "150832.303000", "150837.273000", "150837.276000", "150837.288000", "150837.291000", "150837.294000", "150837.297000", "150837.300000", "150837.303000", "150842.274000", "150842.277000", "150842.280000", "150842.283000", "150842.286000", "150842.289000", "150842.292000", "150847.274000", "150847.277000", "150847.280000", "150847.283000", "150847.286000", "150847.289000", "150847.292000", "150852.274000", "150852.277000", "150852.280000", "150852.283000", "150852.286000", "150852.289000", "150852.292000", "150857.274000", "150857.277000", "150857.280000", "150857.283000", "150857.286000", "150857.289000", "150857.292000", "150902.274000", "150902.277000", "150902.280000", "150902.283000", "150902.286000", "150904.645000", "150904.648000", "150904.652000"],
      "InstanceNumber": [1, 2, 3, 4, 5, 6, 7, 8, 9, 10, 11, 12, 13, 14, 15, 16, 17, 18, 19, 20, 21, 22, 23, 24, 25, 26, 27, 28, 29, 30, 31, 32, 33, 34, 35, 36, 37, 38, 39, 40, 41, 42, 43, 44, 45, 46, 47, 48, 49, 50, 51, 52, 53, 54, 55, 56, 57, 58, 59, 60, 61, 62, 63, 64, 65, 66, 67, 68, 69, 70, 71, 72, 73, 74, 75, 76, 77, 78, 79, 80, 81, 82, 83, 84, 85, 86, 87, 88, 89, 90, 91, 92, 93, 94, 95, 96, 97, 98, 99, 100, 101, 102, 103, 104, 105, 106, 107, 108, 109, 110, 111, 112, 113, 114, 115, 116, 117, 118, 119, 120, 121, 122, 123, 124, 125, 126, 127, 128, 129, 130, 131, 132, 133, 134, 135, 136, 137, 138, 139, 140, 141, 142, 143, 144, 145, 146, 147, 148, 149, 150, 151, 152, 153, 154, 155, 156, 157, 158, 159, 160, 161, 162, 163, 164, 165, 166, 167, 168, 169, 170, 171, 172, 173, 174, 175, 176, 177, 178, 179, 180, 181, 182, 183, 184, 185, 186, 187, 188, 189, 190, 191, 192],
      "LargestImagePixelValue": [37842, 38068, 37524, 38878, 38561, 38231, 39168, 36365, 38429, 38511, 38882, 39436, 36661, 38177, 35991, 36322, 37438, 35859, 38448, 37547, 38420, 38901, 37789, 38766, 39150, 36277, 36942, 36784, 38512, 37144, 37813, 39324, 37959, 38430, 37142, 36964, 38032, 38330, 38914, 38542, 37914, 36977, 36447, 36685, 37910, 39474, 39542, 37914, 36675, 36557, 36117, 36516, 38554, 38500, 38458, 36199, 37356, 38856, 38231, 37640, 38662, 36025, 36919, 37909, 37697, 38967, 38828, 36599, 37898, 36534, 38030, 38863, 38943, 37671, 36355, 38019, 36570, 38707, 39018, 39053, 39378, 37212, 36142, 36642, 36494, 38810, 38779, 37142, 37275, 38717, 38020, 38691, 38724, 37031, 36565, 36256, 37311, 38876, 39194, 37276, 38890, 37104, 36777, 37060, 36620, 39138, 38787, 36186, 37661, 35847, 36090, 36876, 36982, 38314, 37407, 39210, 38970, 37349, 38997, 37219, 37495, 36247, 37477, 38290, 38001, 37584, 38108, 37520, 38514, 37614, 37129, 36740, 36637, 37338, 37540, 36815, 36779, 37844, 36955, 38633, 38077, 38309, 37788, 36594, 36854, 37092, 36882, 37848, 38154, 39051, 38641, 38327, 37742, 37729, 36950, 37602, 37088, 36954, 37700, 36762, 38910, 37829, 37805, 37563, 37638, 37709, 38694, 38042, 37012, 37585, 36392, 37465, 37583, 37618, 38784, 38166, 38131, 37769, 37713, 37158, 37251, 37106, 37912, 37901, 39128, 37795, 37808, 37591, 36230, 37581, 38531, 38268],
      "WindowCenter": [10602.0, 10585.0, 10570.0, 10586.0, 10603.0, 10595.0, 10602.0, 10563.0, 10578.0, 10569.0, 10571.0, 10563.0, 10536.0, 10551.0, 10528.0, 10537.0, 10552.0, 10539.0, 10570.0, 10560.0, 10564.0, 10573.0, 10559.0, 10560.0, 10565.0, 10527.0, 10530.0, 10530.0, 10546.0, 10531.0, 10548.0, 10568.0, 10562.0, 10561.0, 10546.0, 10545.0, 10547.0, 10547.0, 10556.0, 10551.0, 10533.0, 10527.0, 10521.0, 10522.0, 10537.0, 10552.0, 10552.0, 10531.0, 10515.0, 10516.0, 10519.0, 10542.0, 10573.0, 10573.0, 10562.0, 10538.0, 10552.0, 10568.0, 10564.0, 10552.0, 10565.0, 10530.0, 10539.0, 10545.0, 10547.0, 10557.0, 10560.0, 10535.0, 10549.0, 10536.0, 10554.0, 10560.0, 10557.0, 10548.0, 10532.0, 10540.0, 10526.0, 10548.0, 10547.0, 10555.0, 10561.0, 10551.0, 10544.0, 10566.0, 10573.0, 10600.0, 10604.0, 10576.0, 10562.0, 10572.0, 10558.0, 10550.0, 10542.0, 10525.0, 10517.0, 10518.0, 10534.0, 10536.0, 10546.0, 10528.0, 10554.0, 10545.0, 10542.0, 10547.0, 10543.0, 10567.0, 10560.0, 10530.0, 10541.0, 10522.0, 10533.0, 10553.0, 10561.0, 10580.0, 10569.0, 10588.0, 10589.0, 10569.0, 10582.0, 10564.0, 10568.0, 10554.0, 10562.0, 10571.0, 10571.0, 10566.0, 10563.0, 10559.0, 10560.0, 10548.0, 10542.0, 10542.0, 10545.0, 10550.0, 10550.0, 10548.0, 10549.0, 10551.0, 10537.0, 10548.0, 10544.0, 10558.0, 10554.0, 10541.0, 10539.0, 10551.0, 10545.0, 10557.0, 10555.0, 10566.0, 10573.0, 10562.0, 10557.0, 10557.0, 10540.0, 10555.0, 10544.0, 10546.0, 10558.0, 10563.0, 10601.0, 10583.0, 10577.0, 10561.0, 10558.0, 10556.0, 10562.0, 10566.0, 10555.0, 10552.0, 10541.0, 10552.0, 10552.0, 10550.0, 10560.0, 10553.0, 10553.0, 10545.0, 10547.0, 10543.0, 10546.0, 10561.0, 10566.0, 10555.0, 10568.0, 10533.0, 10530.0, 10516.0, 10508.0, 10522.0, 10529.0, 10526.0],
      "WindowWidth": [22637.0, 22584.0, 22547.0, 22576.0, 22614.0, 22601.0, 22610.0, 22530.0, 22551.0, 22528.0, 22531.0, 22511.0, 22462.0, 22490.0, 22450.0, 22468.0, 22500.0, 22479.0, 22537.0, 22518.0, 22523.0, 22535.0, 22508.0, 22503.0, 22514.0, 22439.0, 22443.0, 22446.0, 22474.0, 22447.0, 22483.0, 22522.0, 22511.0, 22512.0, 22482.0, 22480.0, 22481.0, 22480.0, 22496.0, 22485.0, 22451.0, 22441.0, 22430.0, 22431.0, 22460.0, 22487.0, 22485.0, 22443.0, 22412.0, 22414.0, 22426.0, 22476.0, 22537.0, 22540.0, 22512.0, 22466.0, 22493.0, 22525.0, 22516.0, 22491.0, 22515.0, 22449.0, 22464.0, 22475.0, 22479.0, 22498.0, 22506.0, 22462.0, 22489.0, 22466.0, 22497.0, 22510.0, 22499.0, 22483.0, 22453.0, 22465.0, 22440.0, 22477.0, 22476.0, 22495.0, 22507.0, 22494.0, 22486.0, 22533.0, 22556.0, 22607.0, 22614.0, 22558.0, 22526.0, 22541.0, 22507.0, 22482.0, 22463.0, 22432.0, 22420.0, 22424.0, 22453.0, 22451.0, 22469.0, 22438.0, 22489.0, 22478.0, 22477.0, 22485.0, 22479.0, 22523.0, 22507.0, 22448.0, 22470.0, 22437.0, 22459.0, 22502.0, 22522.0, 22559.0, 22537.0, 22573.0, 22574.0, 22536.0, 22558.0, 22525.0, 22536.0, 22509.0, 22523.0, 22540.0, 22538.0, 22528.0, 22517.0, 22509.0, 22509.0, 22485.0, 22473.0, 22475.0, 22480.0, 22494.0, 22493.0, 22493.0, 22493.0, 22493.0, 22461.0, 22479.0, 22473.0, 22505.0, 22499.0, 22475.0, 22470.0, 22493.0, 22482.0, 22507.0, 22499.0, 22521.0, 22538.0, 22513.0, 22506.0, 22503.0, 22471.0, 22499.0, 22477.0, 22483.0, 22509.0, 22526.0, 22604.0, 22568.0, 22553.0, 22518.0, 22507.0, 22502.0, 22514.0, 22525.0, 22504.0, 22498.0, 22477.0, 22499.0, 22496.0, 22489.0, 22508.0, 22491.0, 22491.0, 22475.0, 22478.0, 22473.0, 22481.0, 22515.0, 22526.0, 22502.0, 22521.0, 22448.0, 22439.0, 22409.0, 22393.0, 22421.0, 22434.0, 22427.0]
    },
    "slices": {}
  },
  "NumberOfVolumes": 192
}