{
  "AcquisitionMatrixPE": 104,
  "AcquisitionNumber": 1,
  "AcquisitionTime": "13:42:13.765000",
  "BandwidthPerPixelPhaseEncode": 16.578,
  "BaseResolution": 104,
  "BodyPartExamined": "BRAIN",
  "ConsistencyInfo": "N4_VE11C_LATEST_20160120",
  "ConversionSoftware": "dcm2niix",
  "ConversionSoftwareVersion": "v1.0.20190902",
  "DerivedVendorReportedEchoSpacing": 0.000580009,
  "DeviceSerialNumber": "166018",
  "DwellTime": 2.1e-06,
  "EchoTime": 0.037,
  "EchoTrainLength": 104,
  "EffectiveEchoSpacing": 0.000580009,
  "FlipAngle": 68,
  "ImageComments": "Unaliased_MB6_PE3_LB",
  "ImageOrientationPatientDICOM": [0.999487, 0.0261597, -0.018501, -0.0287911, 0.986645, -0.160318],
  "ImageType": [
    "ORIGINAL",
    "PRIMARY",
    "M",
    "MB",
    "ND",
    "MOSAIC"
],
  "ImagingFrequency": 123.191,
  "InPlanePhaseEncodingDirectionDICOM": "COL",
  "InstitutionAddress": "Washington_Place_6_NYC_NYC_US_10003",
  "InstitutionName": "NYU_Center_for_Brain_Imaging",
  "InstitutionalDepartmentName": "Department",
  "MRAcquisitionType": "2D",
  "MagneticFieldStrength": 3,
  "Manufacturer": "Siemens",
  "ManufacturersModelName": "Prisma",
  "Modality": "MR",
  "MultibandAccelerationFactor": 6,
  "PartialFourier": 1,
  "PatientPosition": "HFS",
  "PercentPhaseFOV": 100,
  "PhaseEncodingDirection": "j",
  "PhaseEncodingSteps": 104,
  "PhaseResolution": 1,
  "PixelBandwidth": 2290,
  "ProcedureStepDescription": "Investigators_Winawer",
  "ProtocolName": "cmrr_mbepi_s6_2mm_66sl_PA_TR1.0",
  "PulseSequenceDetails": "%CustomerSeq%_cmrr_mbep2d_bold",
  "ReceiveCoilActiveElements": "HC1-7",
  "ReceiveCoilName": "HeadNeck_64",
  "ReconMatrixPE": 104,
  "RepetitionTime": 1,
  "SAR": 0.0625584,
  "ScanOptions": "FS",
  "ScanningSequence": "EP",
  "SequenceName": "epfid2d1_104",
  "SequenceVariant": "SK_SS",
  "SeriesDescription": "cmrr_mbepi_s6_2mm_66sl_PA_TR1.0",
  "SeriesNumber": 30,
  "ShimSetting": [257, -12631, -8447, 449, 1, -16, 86, 38],
  "SliceThickness": 2,
  "SliceTiming": [0, 0.5325, 0.0875, 0.6225, 0.1775, 0.7125, 0.2675, 0.8, 0.355, 0.89, 0.445, 0, 0.5325, 0.0875, 0.6225, 0.1775, 0.7125, 0.2675, 0.8, 0.355, 0.89, 0.445, 0, 0.5325, 0.0875, 0.6225, 0.1775, 0.7125, 0.2675, 0.8, 0.355, 0.89, 0.445, 0, 0.5325, 0.0875, 0.6225, 0.1775, 0.7125, 0.2675, 0.8, 0.355, 0.89, 0.445, 0, 0.5325, 0.0875, 0.6225, 0.1775, 0.7125, 0.2675, 0.8, 0.355, 0.89, 0.445, 0, 0.5325, 0.0875, 0.6225, 0.1775, 0.7125, 0.2675, 0.8, 0.355, 0.89, 0.445],
  "SoftwareVersions": "syngo_MR_E11",
  "SpacingBetweenSlices": 2,
  "StationName": "AWP166018",
  "TaskName": "prf",
  "TotalReadoutTime": 0.0597409,
  "TxRefAmp": 214.37,
  "WipMemBlock": "27298a96-c85e-4d81-a747-cbd33ed66e06||Sequence: ve11c/master r/ab69a6c; Apr 19 2017 09:47:47 by eja",
  "dcmmeta_affine": [
    [-1.9989731311798096, -0.05758224427700043, -0.02812008000910282, 113.10984802246094],
    [-0.05231931060552597, 1.9732909202575684, -0.32153627276420593, -77.13788604736328],
    [-0.03700193762779236, 0.320635586977005, 1.97378408908844, -64.35639953613281],
    [0.0, 0.0, 0.0, 1.0]
],
  "dcmmeta_reorient_transform": [
    [0.0, -1.0, 0.0, 103.0],
    [1.0, 0.0, 0.0, 0.0],
    [0.0, 0.0, 1.0, 0.0],
    [0.0, 0.0, 0.0, 1.0]
],
  "dcmmeta_shape": [104, 104, 66, 192],
  "dcmmeta_slice_dim": 2,
  "dcmmeta_version": 0.6,
  "global": {
    "const": {
      "AccessionNumber": "j94gwt7u",
      "AcquisitionMatrix": [104, 0, 0, 104],
      "AngioFlag": "N",
      "BitsAllocated": 16,
      "BitsStored": 16,
      "BodyPartExamined": "BRAIN",
      "Columns": 936,
      "EchoNumbers": 1,
      "EchoTime": 37.0,
      "EchoTrainLength": 104,
      "FlipAngle": 68.0,
      "HighBit": 15,
      "ImageOrientationPatient": [0.99948656147083, 0.02615965539129, -0.0185009694077, -0.0287911223546, 0.98664546758569, -0.1603177861816],
      "ImagePositionPatient": [-914.79748492973, -968.76494538722, 117.44626990449],
      "ImageType": [
        "ORIGINAL",
        "PRIMARY",
        "M",
        "MB",
        "ND",
        "MOSAIC"
],
      "ImagedNucleus": "1H",
      "ImagingFrequency": 123.191233,
      "InPlanePhaseEncodingDirection": "COL",
      "MRAcquisitionType": "2D",
      "MagneticFieldStrength": 3.0,
      "Manufacturer": "SIEMENS",
      "ManufacturerModelName": "Prisma",
      "Modality": "MR",
      "NumberOfAverages": 1.0,
      "NumberOfPhaseEncodingSteps": 104,
      "PercentPhaseFieldOfView": 100.0,
      "PercentSampling": 100.0,
      "PerformedProcedureStepStartTime": "124416.153000",
      "PhotometricInterpretation": "MONOCHROME2",
      "PixelBandwidth": 2290.0,
      "PixelRepresentation": 0,
      "PixelSpacing": [2.0, 2.0],
      "ProtocolName": "cmrr_mbepi_s6_2mm_66sl_PA_TR1.0",
      "RepetitionTime": 1000.0,
      "Rows": 936,
      "SAR": 0.0625584192918,
      "SamplesPerPixel": 1,
      "ScanOptions": "FS",
      "ScanningSequence": "EP",
      "SequenceName": "epfid2d1_104",
      "SequenceVariant": [
        "SK",
        "SS"
],
      "SeriesDescription": "cmrr_mbepi_s6_2mm_66sl_PA_TR1.0",
      "SeriesNumber": 30,
      "SeriesTime": "134325.420000",
      "SliceLocation": -52.70183357968,
      "SliceThickness": 2.0,
      "SmallestImagePixelValue": 0,
      "SoftwareVersions": "syngo MR E11",
      "SpacingBetweenSlices": 2.0000000044048,
      "SpecificCharacterSet": "ISO_IR 100",
      "StudyID": "2",
      "StudyTime": "124416.101000",
      "TransmitCoilName": "Body",
      "VariableFlipAngleFlag": "N",
      "WindowCenterWidthExplanation": "Algo1",
      "dBdt": 0.0},
    "slices": {}
  },
  "time": {
    "samples": {
      "AcquisitionNumber": [1, 2, 3, 4, 5, 6, 7, 8, 9, 10, 11, 12, 13, 14, 15, 16, 17, 18, 19, 20, 21, 22, 23, 24, 25, 26, 27, 28, 29, 30, 31, 32, 33, 34, 35, 36, 37, 38, 39, 40, 41, 42, 43, 44, 45, 46, 47, 48, 49, 50, 51, 52, 53, 54, 55, 56, 57, 58, 59, 60, 61, 62, 63, 64, 65, 66, 67, 68, 69, 70, 71, 72, 73, 74, 75, 76, 77, 78, 79, 80, 81, 82, 83, 84, 85, 86, 87, 88, 89, 90, 91, 92, 93, 94, 95, 96, 97, 98, 99, 100, 101, 102, 103, 104, 105, 106, 107, 108, 109, 110, 111, 112, 113, 114, 115, 116, 117, 118, 119, 120, 121, 122, 123, 124, 125, 126, 127, 128, 129, 130, 131, 132, 133, 134, 135, 136, 137, 138, 139, 140, 141, 142, 143, 144, 145, 146, 147, 148, 149, 150, 151, 152, 153, 154, 155, 156, 157, 158, 159, 160, 161, 162, 163, 164, 165, 166, 167, 168, 169, 170, 171, 172, 173, 174, 175, 176, 177, 178, 179, 180, 181, 182, 183, 184, 185, 186, 187, 188, 189, 190, 191, 192],
      "AcquisitionTime": ["134213.765000", "134214.765000", "134215.765000", "134216.765000", "134217.765000", "134218.765000", "134219.765000", "134220.765000", "134221.765000", "134222.765000", "134223.765000", "134224.765000", "134225.765000", "134226.765000", "134227.765000", "134228.765000", "134229.765000", "134230.765000", "134231.765000", "134232.765000", "134233.765000", "134234.765000", "134235.765000", "134236.765000", "134237.765000", "134238.765000", "134239.765000", "134240.765000", "134241.765000", "134242.765000", "134243.765000", "134244.765000", "134245.765000", "134246.765000", "134247.765000", "134248.765000", "134249.765000", "134250.765000", "134251.765000", "134252.765000", "134253.765000", "134254.765000", "134255.765000", "134256.765000", "134257.765000", "134258.765000", "134259.765000", "134300.765000", "134301.765000", "134302.765000", "134303.765000", "134304.765000", "134305.765000", "134306.765000", "134307.765000", "134308.765000", "134309.765000", "134310.765000", "134311.765000", "134312.765000", "134313.765000", "134314.765000", "134315.765000", "134316.765000", "134317.765000", "134318.765000", "134319.765000", "134320.765000", "134321.765000", "134322.765000", "134323.765000", "134324.765000", "134325.765000", "134326.765000", "134327.765000", "134328.765000", "134329.765000", "134330.765000", "134331.765000", "134332.765000", "134333.765000", "134334.765000", "134335.765000", "134336.765000", "134337.765000", "134338.765000", "134339.765000", "134340.765000", "134341.765000", "134342.765000", "134343.765000", "134344.765000", "134345.765000", "134346.765000", "134347.765000", "134348.765000", "134349.765000", "134350.765000", "134351.765000", "134352.765000", "134353.765000", "134354.765000", "134355.765000", "134356.765000", "134357.765000", "134358.765000", "134359.765000", "134400.765000", "134401.765000", "134402.765000", "134403.765000", "134404.765000", "134405.765000", "134406.765000", "134407.765000", "134408.765000", "134409.765000", "134410.765000", "134411.765000", "134412.765000", "134413.765000", "134414.765000", "134415.765000", "134416.765000", "134417.765000", "134418.765000", "134419.765000", "134420.765000", "134421.765000", "134422.765000", "134423.765000", "134424.765000", "134425.765000", "134426.765000", "134427.765000", "134428.765000", "134429.765000", "134430.765000", "134431.765000", "134432.765000", "134433.765000", "134434.765000", "134435.765000", "134436.765000", "134437.765000", "134438.765000", "134439.765000", "134440.765000", "134441.765000", "134442.765000", "134443.765000", "134444.765000", "134445.765000", "134446.765000", "134447.765000", "134448.765000", "134449.765000", "134450.765000", "134451.765000", "134452.765000", "134453.765000", "134454.765000", "134455.765000", "134456.765000", "134457.765000", "134458.765000", "134459.765000", "134500.765000", "134501.765000", "134502.765000", "134503.765000", "134504.765000", "134505.765000", "134506.765000", "134507.765000", "134508.765000", "134509.765000", "134510.765000", "134511.765000", "134512.765000", "134513.765000", "134514.765000", "134515.765000", "134516.765000", "134517.765000", "134518.765000", "134519.765000", "134520.765000", "134521.765000", "134522.765000", "134523.765000", "134524.765000"],
      "ContentTime": ["134325.423000", "134325.426000", "134325.429000", "134325.432000", "134325.435000", "134325.438000", "134325.441000", "134325.444000", "134325.447000", "134325.450000", "134325.453000", "134325.456000", "134325.459000", "134325.462000", "134325.465000", "134325.468000", "134325.471000", "134325.474000", "134325.477000", "134325.480000", "134325.483000", "134325.486000", "134325.489000", "134325.492000", "134325.499000", "134325.502000", "134325.505000", "134325.508000", "134325.511000", "134345.372000", "134345.375000", "134345.378000", "134345.381000", "134345.384000", "134345.387000", "134345.390000", "134345.393000", "134345.396000", "134345.399000", "134345.402000", "134345.405000", "134345.408000", "134345.411000", "134345.414000", "134345.417000", "134345.420000", "134345.423000", "134345.429000", "134345.431000", "134345.439000", "134345.441000", "134345.445000", "134345.447000", "134345.450000", "134345.453000", "134345.456000", "134345.459000", "134345.462000", "134405.372000", "134405.375000", "134405.378000", "134405.381000", "134405.384000", "134405.387000", "134405.390000", "134405.393000", "134405.396000", "134405.399000", "134405.402000", "134405.405000", "134405.408000", "134405.429000", "134405.432000", "134405.435000", "134405.438000", "134405.441000", "134405.444000", "134405.447000", "134405.471000", "134405.474000", "134405.477000", "134405.480000", "134405.483000", "134405.486000", "134405.489000", "134405.492000", "134425.373000", "134425.376000", "134425.379000", "134425.382000", "134425.385000", "134425.388000", "134425.391000", "134425.394000", "134425.397000", "134425.400000", "134425.403000", "134425.406000", "134425.409000", "134425.412000", "134425.415000", "134425.418000", "134425.421000", "134425.424000", "134425.427000", "134425.430000", "134425.433000", "134425.436000", "134425.439000", "134425.452000", "134425.455000", "134425.458000", "134425.461000", "134425.464000", "134445.373000", "134445.376000", "134445.379000", "134445.386000", "134445.389000", "134445.392000", "134445.395000", "134445.399000", "134445.401000", "134445.404000", "134445.407000", "134445.410000", "134445.413000", "134445.416000", "134445.419000", "134445.422000", "134445.425000", "134445.428000", "134445.431000", "134445.434000", "134445.437000", "134445.440000", "134445.443000", "134445.446000", "134445.449000", "134445.452000", "134445.455000", "134445.458000", "134445.461000", "134505.373000", "134505.376000", "134505.379000", "134505.382000", "134505.385000", "134505.388000", "134505.391000", "134505.394000", "134505.397000", "134505.400000", "134505.403000", "134505.406000", "134505.409000", "134505.412000", "134505.415000", "134505.418000", "134505.421000", "134505.424000", "134505.427000", "134505.430000", "134505.433000", "134505.436000", "134505.439000", "134505.442000", "134505.445000", "134505.448000", "134505.451000", "134505.454000", "134525.372000", "134525.375000", "134525.378000", "134525.381000", "134525.384000", "134525.387000", "134525.390000", "134525.393000", "134525.396000", "134525.399000", "134525.402000", "134525.405000", "134525.408000", "134525.411000", "134525.414000", "134525.417000", "134525.420000", "134525.423000", "134525.426000", "134525.429000", "134526.073000"],
      "InstanceCreationTime": ["134325.423000", "134325.426000", "134325.429000", "134325.432000", "134325.435000", "134325.438000", "134325.441000", "134325.444000", "134325.447000", "134325.450000", "134325.453000", "134325.456000", "134325.459000", "134325.462000", "134325.465000", "134325.468000", "134325.471000", "134325.474000", "134325.477000", "134325.480000", "134325.483000", "134325.486000", "134325.489000", "134325.492000", "134325.499000", "134325.502000", "134325.505000", "134325.508000", "134325.511000", "134345.372000", "134345.375000", "134345.378000", "134345.381000", "134345.384000", "134345.387000", "134345.390000", "134345.393000", "134345.396000", "134345.399000", "134345.402000", "134345.405000", "134345.408000", "134345.411000", "134345.414000", "134345.417000", "134345.420000", "134345.423000", "134345.429000", "134345.431000", "134345.439000", "134345.441000", "134345.445000", "134345.447000", "134345.450000", "134345.453000", "134345.456000", "134345.459000", "134345.462000", "134405.372000", "134405.375000", "134405.378000", "134405.381000", "134405.384000", "134405.387000", "134405.390000", "134405.393000", "134405.396000", "134405.399000", "134405.402000", "134405.405000", "134405.408000", "134405.429000", "134405.432000", "134405.435000", "134405.438000", "134405.441000", "134405.444000", "134405.447000", "134405.471000", "134405.474000", "134405.477000", "134405.480000", "134405.483000", "134405.486000", "134405.489000", "134405.492000", "134425.373000", "134425.376000", "134425.379000", "134425.382000", "134425.385000", "134425.388000", "134425.391000", "134425.394000", "134425.397000", "134425.400000", "134425.403000", "134425.406000", "134425.409000", "134425.412000", "134425.415000", "134425.418000", "134425.421000", "134425.424000", "134425.427000", "134425.430000", "134425.433000", "134425.436000", "134425.439000", "134425.452000", "134425.455000", "134425.458000", "134425.461000", "134425.464000", "134445.373000", "134445.376000", "134445.379000", "134445.386000", "134445.389000", "134445.392000", "134445.395000", "134445.399000", "134445.401000", "134445.404000", "134445.407000", "134445.410000", "134445.413000", "134445.416000", "134445.419000", "134445.422000", "134445.425000", "134445.428000", "134445.431000", "134445.434000", "134445.437000", "134445.440000", "134445.443000", "134445.446000", "134445.449000", "134445.452000", "134445.455000", "134445.458000", "134445.461000", "134505.373000", "134505.376000", "134505.379000", "134505.382000", "134505.385000", "134505.388000", "134505.391000", "134505.394000", "134505.397000", "134505.400000", "134505.403000", "134505.406000", "134505.409000", "134505.412000", "134505.415000", "134505.418000", "134505.421000", "134505.424000", "134505.427000", "134505.430000", "134505.433000", "134505.436000", "134505.439000", "134505.442000", "134505.445000", "134505.448000", "134505.451000", "134505.454000", "134525.372000", "134525.375000", "134525.378000", "134525.381000", "134525.384000", "134525.387000", "134525.390000", "134525.393000", "134525.396000", "134525.399000", "134525.402000", "134525.405000", "134525.408000", "134525.411000", "134525.414000", "134525.417000", "134525.420000", "134525.423000", "134525.426000", "134525.429000", "134526.073000"],
      "InstanceNumber": [1, 2, 3, 4, 5, 6, 7, 8, 9, 10, 11, 12, 13, 14, 15, 16, 17, 18, 19, 20, 21, 22, 23, 24, 25, 26, 27, 28, 29, 30, 31, 32, 33, 34, 35, 36, 37, 38, 39, 40, 41, 42, 43, 44, 45, 46, 47, 48, 49, 50, 51, 52, 53, 54, 55, 56, 57, 58, 59, 60, 61, 62, 63, 64, 65, 66, 67, 68, 69, 70, 71, 72, 73, 74, 75, 76, 77, 78, 79, 80, 81, 82, 83, 84, 85, 86, 87, 88, 89, 90, 91, 92, 93, 94, 95, 96, 97, 98, 99, 100, 101, 102, 103, 104, 105, 106, 107, 108, 109, 110, 111, 112, 113, 114, 115, 116, 117, 118, 119, 120, 121, 122, 123, 124, 125, 126, 127, 128, 129, 130, 131, 132, 133, 134, 135, 136, 137, 138, 139, 140, 141, 142, 143, 144, 145, 146, 147, 148, 149, 150, 151, 152, 153, 154, 155, 156, 157, 158, 159, 160, 161, 162, 163, 164, 165, 166, 167, 168, 169, 170, 171, 172, 173, 174, 175, 176, 177, 178, 179, 180, 181, 182, 183, 184, 185, 186, 187, 188, 189, 190, 191, 192],
      "LargestImagePixelValue": [35258, 34604, 33778, 33846, 33893, 32918, 33853, 33331, 32909, 34210, 33127, 32532, 33829, 33153, 33316, 33687, 33362, 33381, 34129, 33563, 33787, 33814, 33879, 34293, 33477, 33627, 33920, 32739, 32822, 33312, 33375, 33585, 33881, 33593, 33672, 33572, 33077, 33305, 34548, 33581, 34344, 34147, 33961, 33968, 34196, 33000, 33481, 33700, 32640, 32995, 33605, 33693, 33097, 33315, 33563, 33141, 32815, 33252, 33719, 32682, 33147, 33509, 33215, 33377, 34046, 34270, 33658, 33961, 34283, 33857, 34079, 33990, 33197, 33003, 34259, 32949, 33069, 33622, 32653, 33047, 33649, 33038, 34461, 33677, 33440, 34410, 34040, 33680, 34369, 33611, 32981, 33059, 33298, 33432, 33719, 33849, 33493, 33310, 33961, 34090, 33502, 33494, 33858, 33183, 33325, 33348, 33239, 33607, 33491, 34025, 33277, 34579, 34107, 33841, 34415, 34086, 33706, 32724, 33433, 33054, 32382, 32901, 33353, 32839, 33346, 33446, 33052, 33341, 33911, 33391, 33217, 33526, 33810, 33327, 33159, 33753, 33734, 33641, 34041, 33693, 33437, 33549, 33865, 33660, 33302, 34156, 33886, 34021, 34018, 34322, 33532, 33783, 33537, 33129, 33607, 34102, 33307, 33707, 33590, 33489, 34309, 33874, 33695, 34341, 34301, 33965, 33184, 33684, 33921, 32844, 33404, 33520, 33206, 33387, 33570, 32908, 34122, 33938, 32595, 33909, 33724, 32937, 34042, 34454, 33962, 34309, 34539, 34011, 33388, 33798, 33417, 32575],
      "WindowCenter": [8858.0, 8840.0, 8827.0, 8819.0, 8817.0, 8787.0, 8788.0, 8767.0, 8766.0, 8786.0, 8767.0, 8760.0, 8780.0, 8774.0, 8775.0, 8783.0, 8784.0, 8785.0, 8808.0, 8794.0, 8792.0, 8792.0, 8788.0, 8789.0, 8792.0, 8790.0, 8797.0, 8769.0, 8767.0, 8775.0, 8775.0, 8782.0, 8797.0, 8784.0, 8785.0, 8783.0, 8768.0, 8765.0, 8795.0, 8784.0, 8814.0, 8810.0, 8801.0, 8800.0, 8798.0, 8768.0, 8773.0, 8778.0, 8760.0, 8764.0, 8773.0, 8781.0, 8774.0, 8766.0, 8782.0, 8774.0, 8768.0, 8781.0, 8783.0, 8771.0, 8783.0, 8791.0, 8783.0, 8792.0, 8809.0, 8817.0, 8807.0, 8812.0, 8818.0, 8803.0, 8802.0, 8801.0, 8786.0, 8786.0, 8798.0, 8779.0, 8784.0, 8800.0, 8787.0, 8786.0, 8800.0, 8784.0, 8812.0, 8793.0, 8802.0, 8824.0, 8828.0, 8813.0, 8820.0, 8813.0, 8781.0, 8775.0, 8776.0, 8767.0, 8764.0, 8772.0, 8781.0, 8783.0, 8799.0, 8814.0, 8792.0, 8784.0, 8789.0, 8765.0, 8767.0, 8774.0, 8774.0, 8791.0, 8800.0, 8809.0, 8796.0, 8808.0, 8810.0, 8795.0, 8798.0, 8792.0, 8778.0, 8771.0, 8785.0, 8778.0, 8766.0, 8784.0, 8784.0, 8787.0, 8792.0, 8802.0, 8785.0, 8784.0, 8781.0, 8768.0, 8764.0, 8772.0, 8788.0, 8783.0, 8788.0, 8803.0, 8812.0, 8801.0, 8801.0, 8786.0, 8776.0, 8782.0, 8790.0, 8781.0, 8772.0, 8788.0, 8780.0, 8783.0, 8799.0, 8804.0, 8793.0, 8800.0, 8800.0, 8793.0, 8792.0, 8792.0, 8776.0, 8776.0, 8784.0, 8785.0, 8800.0, 8811.0, 8803.0, 8816.0, 8810.0, 8792.0, 8778.0, 8791.0, 8789.0, 8777.0, 8791.0, 8791.0, 8784.0, 8791.0, 8792.0, 8793.0, 8816.0, 8818.0, 8798.0, 8809.0, 8802.0, 8776.0, 8788.0, 8796.0, 8798.0, 8807.0, 8817.0, 8809.0, 8793.0, 8798.0, 8784.0, 8778.0],
      "WindowWidth": [18799.0, 18758.0, 18735.0, 18721.0, 18710.0, 18655.0, 18647.0, 18611.0, 18611.0, 18645.0, 18612.0, 18602.0, 18638.0, 18630.0, 18634.0, 18651.0, 18656.0, 18661.0, 18702.0, 18676.0, 18669.0, 18667.0, 18653.0, 18656.0, 18665.0, 18659.0, 18669.0, 18618.0, 18614.0, 18630.0, 18633.0, 18645.0, 18675.0, 18652.0, 18653.0, 18650.0, 18620.0, 18614.0, 18669.0, 18655.0, 18712.0, 18709.0, 18690.0, 18683.0, 18677.0, 18618.0, 18620.0, 18628.0, 18600.0, 18607.0, 18625.0, 18641.0, 18627.0, 18614.0, 18641.0, 18629.0, 18618.0, 18640.0, 18647.0, 18630.0, 18649.0, 18665.0, 18652.0, 18669.0, 18706.0, 18725.0, 18711.0, 18719.0, 18728.0, 18696.0, 18691.0, 18685.0, 18656.0, 18658.0, 18676.0, 18643.0, 18651.0, 18681.0, 18658.0, 18655.0, 18680.0, 18650.0, 18701.0, 18669.0, 18690.0, 18733.0, 18747.0, 18720.0, 18731.0, 18717.0, 18651.0, 18632.0, 18634.0, 18611.0, 18603.0, 18622.0, 18643.0, 18648.0, 18679.0, 18705.0, 18666.0, 18650.0, 18654.0, 18607.0, 18614.0, 18629.0, 18629.0, 18665.0, 18685.0, 18703.0, 18683.0, 18703.0, 18707.0, 18682.0, 18681.0, 18669.0, 18643.0, 18628.0, 18654.0, 18643.0, 18621.0, 18650.0, 18647.0, 18656.0, 18664.0, 18686.0, 18650.0, 18647.0, 18637.0, 18611.0, 18600.0, 18619.0, 18650.0, 18648.0, 18665.0, 18699.0, 18714.0, 18689.0, 18686.0, 18659.0, 18635.0, 18645.0, 18659.0, 18641.0, 18621.0, 18649.0, 18638.0, 18648.0, 18679.0, 18687.0, 18669.0, 18684.0, 18683.0, 18672.0, 18668.0, 18667.0, 18637.0, 18638.0, 18655.0, 18659.0, 18690.0, 18714.0, 18700.0, 18720.0, 18708.0, 18670.0, 18642.0, 18663.0, 18657.0, 18639.0, 18666.0, 18666.0, 18653.0, 18667.0, 18669.0, 18670.0, 18715.0, 18722.0, 18687.0, 18701.0, 18690.0, 18639.0, 18659.0, 18676.0, 18681.0, 18702.0, 18723.0, 18704.0, 18671.0, 18677.0, 18653.0, 18642.0]
    },
    "slices": {}
  },
  "NumberOfVolumes": 192
}