{
  "AcquisitionMatrixPE": 104,
  "AcquisitionNumber": 1,
  "AcquisitionTime": "13:30:41.807500",
  "BandwidthPerPixelPhaseEncode": 16.578,
  "BaseResolution": 104,
  "BodyPartExamined": "BRAIN",
  "ConsistencyInfo": "N4_VE11C_LATEST_20160120",
  "ConversionSoftware": "dcm2niix",
  "ConversionSoftwareVersion": "v1.0.20190902",
  "DerivedVendorReportedEchoSpacing": 0.000580009,
  "DeviceSerialNumber": "166018",
  "DwellTime": 2.1e-06,
  "EchoTime": 0.037,
  "EchoTrainLength": 104,
  "EffectiveEchoSpacing": 0.000580009,
  "FlipAngle": 68,
  "ImageComments": "Unaliased_MB6_PE3_LB",
  "ImageOrientationPatientDICOM": [0.999487, 0.0261597, -0.018501, -0.0287911, 0.986645, -0.160318],
  "ImageType": [
    "ORIGINAL",
    "PRIMARY",
    "M",
    "MB",
    "ND",
    "MOSAIC"
],
  "ImagingFrequency": 123.191,
  "InPlanePhaseEncodingDirectionDICOM": "COL",
  "InstitutionAddress": "Washington_Place_6_NYC_NYC_US_10003",
  "InstitutionName": "NYU_Center_for_Brain_Imaging",
  "InstitutionalDepartmentName": "Department",
  "MRAcquisitionType": "2D",
  "MagneticFieldStrength": 3,
  "Manufacturer": "Siemens",
  "ManufacturersModelName": "Prisma",
  "Modality": "MR",
  "MultibandAccelerationFactor": 6,
  "PartialFourier": 1,
  "PatientPosition": "HFS",
  "PercentPhaseFOV": 100,
  "PhaseEncodingDirection": "j",
  "PhaseEncodingSteps": 104,
  "PhaseResolution": 1,
  "PixelBandwidth": 2290,
  "ProcedureStepDescription": "Investigators_Winawer",
  "ProtocolName": "cmrr_mbepi_s6_2mm_66sl_PA_TR1.0",
  "PulseSequenceDetails": "%CustomerSeq%_cmrr_mbep2d_bold",
  "ReceiveCoilActiveElements": "HC1-7",
  "ReceiveCoilName": "HeadNeck_64",
  "ReconMatrixPE": 104,
  "RepetitionTime": 1,
  "SAR": 0.0625584,
  "ScanOptions": "FS",
  "ScanningSequence": "EP",
  "SequenceName": "epfid2d1_104",
  "SequenceVariant": "SK_SS",
  "SeriesDescription": "cmrr_mbepi_s6_2mm_66sl_PA_TR1.0",
  "SeriesNumber": 24,
  "ShimSetting": [257, -12631, -8447, 449, 1, -16, 86, 38],
  "SliceThickness": 2,
  "SliceTiming": [0, 0.535, 0.0875, 0.6225, 0.1775, 0.7125, 0.2675, 0.8, 0.355, 0.89, 0.445, 0, 0.535, 0.0875, 0.6225, 0.1775, 0.7125, 0.2675, 0.8, 0.355, 0.89, 0.445, 0, 0.535, 0.0875, 0.6225, 0.1775, 0.7125, 0.2675, 0.8, 0.355, 0.89, 0.445, 0, 0.535, 0.0875, 0.6225, 0.1775, 0.7125, 0.2675, 0.8, 0.355, 0.89, 0.445, 0, 0.535, 0.0875, 0.6225, 0.1775, 0.7125, 0.2675, 0.8, 0.355, 0.89, 0.445, 0, 0.535, 0.0875, 0.6225, 0.1775, 0.7125, 0.2675, 0.8, 0.355, 0.89, 0.445],
  "SoftwareVersions": "syngo_MR_E11",
  "SpacingBetweenSlices": 2,
  "StationName": "AWP166018",
  "TaskName": "prf",
  "TotalReadoutTime": 0.0597409,
  "TxRefAmp": 214.37,
  "WipMemBlock": "19e1a39c-34dd-4252-af24-a25579044bd7||Sequence: ve11c/master r/ab69a6c; Apr 19 2017 09:47:47 by eja",
  "dcmmeta_affine": [
    [-1.9989731311798096, -0.05758224427700043, -0.02812008000910282, 113.10984802246094],
    [-0.05231931060552597, 1.9732909202575684, -0.32153627276420593, -77.13788604736328],
    [-0.03700193762779236, 0.320635586977005, 1.97378408908844, -64.35639953613281],
    [0.0, 0.0, 0.0, 1.0]
],
  "dcmmeta_reorient_transform": [
    [0.0, -1.0, 0.0, 103.0],
    [1.0, 0.0, 0.0, 0.0],
    [0.0, 0.0, 1.0, 0.0],
    [0.0, 0.0, 0.0, 1.0]
],
  "dcmmeta_shape": [104, 104, 66, 192],
  "dcmmeta_slice_dim": 2,
  "dcmmeta_version": 0.6,
  "global": {
    "const": {
      "AccessionNumber": "j94gwt7u",
      "AcquisitionMatrix": [104, 0, 0, 104],
      "AngioFlag": "N",
      "BitsAllocated": 16,
      "BitsStored": 16,
      "BodyPartExamined": "BRAIN",
      "Columns": 936,
      "EchoNumbers": 1,
      "EchoTime": 37.0,
      "EchoTrainLength": 104,
      "FlipAngle": 68.0,
      "HighBit": 15,
      "ImageOrientationPatient": [0.99948656147083, 0.02615965539129, -0.0185009694077, -0.0287911223546, 0.98664546758569, -0.1603177861816],
      "ImagePositionPatient": [-914.79748492973, -968.76494538722, 117.44626990449],
      "ImageType": [
        "ORIGINAL",
        "PRIMARY",
        "M",
        "MB",
        "ND",
        "MOSAIC"
],
      "ImagedNucleus": "1H",
      "ImagingFrequency": 123.191228,
      "InPlanePhaseEncodingDirection": "COL",
      "MRAcquisitionType": "2D",
      "MagneticFieldStrength": 3.0,
      "Manufacturer": "SIEMENS",
      "ManufacturerModelName": "Prisma",
      "Modality": "MR",
      "NumberOfAverages": 1.0,
      "NumberOfPhaseEncodingSteps": 104,
      "PercentPhaseFieldOfView": 100.0,
      "PercentSampling": 100.0,
      "PerformedProcedureStepStartTime": "124416.153000",
      "PhotometricInterpretation": "MONOCHROME2",
      "PixelBandwidth": 2290.0,
      "PixelRepresentation": 0,
      "PixelSpacing": [2.0, 2.0],
      "ProtocolName": "cmrr_mbepi_s6_2mm_66sl_PA_TR1.0",
      "RepetitionTime": 1000.0,
      "Rows": 936,
      "SAR": 0.0625584192918,
      "SamplesPerPixel": 1,
      "ScanOptions": "FS",
      "ScanningSequence": "EP",
      "SequenceName": "epfid2d1_104",
      "SequenceVariant": [
        "SK",
        "SS"
],
      "SeriesDescription": "cmrr_mbepi_s6_2mm_66sl_PA_TR1.0",
      "SeriesNumber": 24,
      "SeriesTime": "133145.405000",
      "SliceLocation": -52.70183357968,
      "SliceThickness": 2.0,
      "SmallestImagePixelValue": 0,
      "SoftwareVersions": "syngo MR E11",
      "SpacingBetweenSlices": 2.0000000044048,
      "SpecificCharacterSet": "ISO_IR 100",
      "StudyID": "2",
      "StudyTime": "124416.101000",
      "TransmitCoilName": "Body",
      "VariableFlipAngleFlag": "N",
      "WindowCenterWidthExplanation": "Algo1",
      "dBdt": 0.0},
    "slices": {}
  },
  "time": {
    "samples": {
      "AcquisitionNumber": [1, 2, 3, 4, 5, 6, 7, 8, 9, 10, 11, 12, 13, 14, 15, 16, 17, 18, 19, 20, 21, 22, 23, 24, 25, 26, 27, 28, 29, 30, 31, 32, 33, 34, 35, 36, 37, 38, 39, 40, 41, 42, 43, 44, 45, 46, 47, 48, 49, 50, 51, 52, 53, 54, 55, 56, 57, 58, 59, 60, 61, 62, 63, 64, 65, 66, 67, 68, 69, 70, 71, 72, 73, 74, 75, 76, 77, 78, 79, 80, 81, 82, 83, 84, 85, 86, 87, 88, 89, 90, 91, 92, 93, 94, 95, 96, 97, 98, 99, 100, 101, 102, 103, 104, 105, 106, 107, 108, 109, 110, 111, 112, 113, 114, 115, 116, 117, 118, 119, 120, 121, 122, 123, 124, 125, 126, 127, 128, 129, 130, 131, 132, 133, 134, 135, 136, 137, 138, 139, 140, 141, 142, 143, 144, 145, 146, 147, 148, 149, 150, 151, 152, 153, 154, 155, 156, 157, 158, 159, 160, 161, 162, 163, 164, 165, 166, 167, 168, 169, 170, 171, 172, 173, 174, 175, 176, 177, 178, 179, 180, 181, 182, 183, 184, 185, 186, 187, 188, 189, 190, 191, 192],
      "AcquisitionTime": ["133041.807500", "133042.807500", "133043.807500", "133044.807500", "133045.807500", "133046.807500", "133047.807500", "133048.807500", "133049.807500", "133050.807500", "133051.807500", "133052.807500", "133053.807500", "133054.807500", "133055.807500", "133056.807500", "133057.807500", "133058.807500", "133059.807500", "133100.807500", "133101.807500", "133102.807500", "133103.807500", "133104.807500", "133105.807500", "133106.807500", "133107.807500", "133108.807500", "133109.807500", "133110.807500", "133111.807500", "133112.807500", "133113.807500", "133114.807500", "133115.807500", "133116.807500", "133117.807500", "133118.807500", "133119.807500", "133120.807500", "133121.807500", "133122.807500", "133123.807500", "133124.807500", "133125.807500", "133126.807500", "133127.807500", "133128.807500", "133129.807500", "133130.807500", "133131.807500", "133132.807500", "133133.807500", "133134.807500", "133135.807500", "133136.807500", "133137.807500", "133138.807500", "133139.807500", "133140.807500", "133141.807500", "133142.807500", "133143.807500", "133144.807500", "133145.807500", "133146.807500", "133147.807500", "133148.807500", "133149.807500", "133150.807500", "133151.807500", "133152.807500", "133153.807500", "133154.807500", "133155.807500", "133156.807500", "133157.807500", "133158.807500", "133159.807500", "133200.807500", "133201.807500", "133202.807500", "133203.807500", "133204.807500", "133205.807500", "133206.807500", "133207.807500", "133208.807500", "133209.807500", "133210.807500", "133211.807500", "133212.807500", "133213.807500", "133214.807500", "133215.807500", "133216.807500", "133217.807500", "133218.807500", "133219.807500", "133220.807500", "133221.807500", "133222.807500", "133223.807500", "133224.807500", "133225.807500", "133226.807500", "133227.807500", "133228.807500", "133229.807500", "133230.807500", "133231.807500", "133232.807500", "133233.807500", "133234.807500", "133235.807500", "133236.807500", "133237.807500", "133238.807500", "133239.807500", "133240.807500", "133241.807500", "133242.807500", "133243.807500", "133244.807500", "133245.807500", "133246.807500", "133247.807500", "133248.807500", "133249.807500", "133250.807500", "133251.807500", "133252.807500", "133253.807500", "133254.807500", "133255.807500", "133256.807500", "133257.807500", "133258.807500", "133259.807500", "133300.807500", "133301.807500", "133302.807500", "133303.807500", "133304.807500", "133305.807500", "133306.807500", "133307.807500", "133308.807500", "133309.807500", "133310.807500", "133311.807500", "133312.807500", "133313.807500", "133314.807500", "133315.807500", "133316.807500", "133317.807500", "133318.807500", "133319.807500", "133320.807500", "133321.807500", "133322.807500", "133323.807500", "133324.807500", "133325.807500", "133326.807500", "133327.807500", "133328.807500", "133329.807500", "133330.807500", "133331.807500", "133332.807500", "133333.807500", "133334.807500", "133335.807500", "133336.807500", "133337.807500", "133338.807500", "133339.807500", "133340.807500", "133341.807500", "133342.807500", "133343.807500", "133344.807500", "133345.807500", "133346.807500", "133347.807500", "133348.807500", "133349.807500", "133350.807500", "133351.807500", "133352.807500"],
      "ContentTime": ["133145.407000", "133145.411000", "133145.414000", "133145.425000", "133145.428000", "133145.435000", "133145.438000", "133145.441000", "133145.444000", "133145.447000", "133145.453000", "133145.456000", "133145.459000", "133145.462000", "133145.465000", "133145.468000", "133145.471000", "133145.474000", "133145.477000", "133145.480000", "133145.483000", "133205.372000", "133205.375000", "133205.378000", "133205.381000", "133205.384000", "133205.387000", "133205.390000", "133205.393000", "133205.396000", "133205.399000", "133205.402000", "133205.405000", "133205.408000", "133205.411000", "133205.414000", "133205.417000", "133205.420000", "133205.423000", "133205.426000", "133205.429000", "133205.432000", "133205.435000", "133205.446000", "133205.449000", "133205.452000", "133205.455000", "133205.458000", "133205.461000", "133225.372000", "133225.378000", "133225.382000", "133225.385000", "133225.388000", "133225.392000", "133225.394000", "133225.397000", "133225.400000", "133225.403000", "133225.406000", "133225.409000", "133225.412000", "133225.416000", "133225.418000", "133225.421000", "133225.424000", "133225.427000", "133225.430000", "133225.433000", "133225.436000", "133225.439000", "133225.442000", "133225.445000", "133225.448000", "133225.451000", "133225.454000", "133225.457000", "133245.373000", "133245.376000", "133245.385000", "133245.388000", "133245.391000", "133245.394000", "133245.397000", "133245.400000", "133245.403000", "133245.406000", "133245.409000", "133245.412000", "133245.415000", "133245.418000", "133245.421000", "133245.424000", "133245.427000", "133245.430000", "133245.433000", "133245.436000", "133245.439000", "133245.442000", "133245.445000", "133245.448000", "133245.451000", "133245.454000", "133245.457000", "133245.460000", "133245.463000", "133305.373000", "133305.376000", "133305.389000", "133305.392000", "133305.395000", "133305.398000", "133305.401000", "133305.404000", "133305.407000", "133305.410000", "133305.412000", "133305.416000", "133305.418000", "133305.421000", "133305.424000", "133305.428000", "133305.431000", "133305.433000", "133305.436000", "133305.439000", "133305.442000", "133305.445000", "133305.453000", "133305.456000", "133305.459000", "133305.470000", "133305.485000", "133305.488000", "133325.373000", "133325.376000", "133325.379000", "133325.382000", "133325.385000", "133325.388000", "133325.391000", "133325.394000", "133325.397000", "133325.400000", "133325.407000", "133325.410000", "133325.413000", "133325.416000", "133325.419000", "133325.422000", "133325.425000", "133325.428000", "133325.431000", "133325.434000", "133325.437000", "133325.440000", "133325.443000", "133325.446000", "133325.449000", "133325.452000", "133325.455000", "133325.458000", "133345.372000", "133345.375000", "133345.378000", "133345.381000", "133345.384000", "133345.387000", "133345.390000", "133345.393000", "133345.396000", "133345.399000", "133345.402000", "133345.413000", "133345.416000", "133345.419000", "133345.422000", "133345.425000", "133345.428000", "133345.431000", "133345.434000", "133345.437000", "133345.440000", "133354.287000", "133354.291000", "133354.294000", "133354.297000", "133354.300000", "133354.303000", "133354.306000", "133354.309000", "133354.312000"],
      "InstanceCreationTime": ["133145.407000", "133145.411000", "133145.414000", "133145.425000", "133145.428000", "133145.435000", "133145.438000", "133145.441000", "133145.444000", "133145.447000", "133145.453000", "133145.456000", "133145.459000", "133145.462000", "133145.465000", "133145.468000", "133145.471000", "133145.474000", "133145.477000", "133145.480000", "133145.483000", "133205.372000", "133205.375000", "133205.378000", "133205.381000", "133205.384000", "133205.387000", "133205.390000", "133205.393000", "133205.396000", "133205.399000", "133205.402000", "133205.405000", "133205.408000", "133205.411000", "133205.414000", "133205.417000", "133205.420000", "133205.423000", "133205.426000", "133205.429000", "133205.432000", "133205.435000", "133205.446000", "133205.449000", "133205.452000", "133205.455000", "133205.458000", "133205.461000", "133225.372000", "133225.378000", "133225.382000", "133225.385000", "133225.388000", "133225.392000", "133225.394000", "133225.397000", "133225.400000", "133225.403000", "133225.406000", "133225.409000", "133225.412000", "133225.416000", "133225.418000", "133225.421000", "133225.424000", "133225.427000", "133225.430000", "133225.433000", "133225.436000", "133225.439000", "133225.442000", "133225.445000", "133225.448000", "133225.451000", "133225.454000", "133225.457000", "133245.373000", "133245.376000", "133245.385000", "133245.388000", "133245.391000", "133245.394000", "133245.397000", "133245.400000", "133245.403000", "133245.406000", "133245.409000", "133245.412000", "133245.415000", "133245.418000", "133245.421000", "133245.424000", "133245.427000", "133245.430000", "133245.433000", "133245.436000", "133245.439000", "133245.442000", "133245.445000", "133245.448000", "133245.451000", "133245.454000", "133245.457000", "133245.460000", "133245.463000", "133305.373000", "133305.376000", "133305.389000", "133305.392000", "133305.395000", "133305.398000", "133305.401000", "133305.404000", "133305.407000", "133305.410000", "133305.412000", "133305.416000", "133305.418000", "133305.421000", "133305.424000", "133305.428000", "133305.431000", "133305.433000", "133305.436000", "133305.439000", "133305.442000", "133305.445000", "133305.453000", "133305.456000", "133305.459000", "133305.470000", "133305.485000", "133305.488000", "133325.373000", "133325.376000", "133325.379000", "133325.382000", "133325.385000", "133325.388000", "133325.391000", "133325.394000", "133325.397000", "133325.400000", "133325.407000", "133325.410000", "133325.413000", "133325.416000", "133325.419000", "133325.422000", "133325.425000", "133325.428000", "133325.431000", "133325.434000", "133325.437000", "133325.440000", "133325.443000", "133325.446000", "133325.449000", "133325.452000", "133325.455000", "133325.458000", "133345.372000", "133345.375000", "133345.378000", "133345.381000", "133345.384000", "133345.387000", "133345.390000", "133345.393000", "133345.396000", "133345.399000", "133345.402000", "133345.413000", "133345.416000", "133345.419000", "133345.422000", "133345.425000", "133345.428000", "133345.431000", "133345.434000", "133345.437000", "133345.440000", "133354.287000", "133354.291000", "133354.294000", "133354.297000", "133354.300000", "133354.303000", "133354.306000", "133354.309000", "133354.312000"],
      "InstanceNumber": [1, 2, 3, 4, 5, 6, 7, 8, 9, 10, 11, 12, 13, 14, 15, 16, 17, 18, 19, 20, 21, 22, 23, 24, 25, 26, 27, 28, 29, 30, 31, 32, 33, 34, 35, 36, 37, 38, 39, 40, 41, 42, 43, 44, 45, 46, 47, 48, 49, 50, 51, 52, 53, 54, 55, 56, 57, 58, 59, 60, 61, 62, 63, 64, 65, 66, 67, 68, 69, 70, 71, 72, 73, 74, 75, 76, 77, 78, 79, 80, 81, 82, 83, 84, 85, 86, 87, 88, 89, 90, 91, 92, 93, 94, 95, 96, 97, 98, 99, 100, 101, 102, 103, 104, 105, 106, 107, 108, 109, 110, 111, 112, 113, 114, 115, 116, 117, 118, 119, 120, 121, 122, 123, 124, 125, 126, 127, 128, 129, 130, 131, 132, 133, 134, 135, 136, 137, 138, 139, 140, 141, 142, 143, 144, 145, 146, 147, 148, 149, 150, 151, 152, 153, 154, 155, 156, 157, 158, 159, 160, 161, 162, 163, 164, 165, 166, 167, 168, 169, 170, 171, 172, 173, 174, 175, 176, 177, 178, 179, 180, 181, 182, 183, 184, 185, 186, 187, 188, 189, 190, 191, 192],
      "LargestImagePixelValue": [36523, 36050, 36013, 34822, 35167, 34423, 34273, 35157, 35040, 34856, 35375, 34853, 34715, 34866, 34454, 34371, 35499, 35387, 34898, 35485, 35665, 34967, 35453, 35564, 34797, 35073, 35725, 34505, 35127, 34770, 34163, 35240, 34522, 34261, 35014, 34325, 34571, 34998, 35137, 34401, 34714, 34753, 34166, 34641, 34526, 34174, 34998, 34634, 33909, 35228, 34710, 33860, 35298, 34910, 34126, 34834, 34422, 34774, 35397, 33944, 34468, 35222, 34266, 34719, 34953, 34421, 35690, 34961, 34900, 35607, 34553, 34867, 35166, 34247, 34994, 34644, 34002, 35279, 34264, 34345, 35221, 33838, 34890, 34542, 34066, 35142, 34802, 34542, 35066, 34950, 34159, 34564, 34161, 33403, 34080, 34481, 33589, 34443, 34153, 33394, 34201, 33494, 34070, 34381, 34422, 34374, 34713, 34389, 34851, 34766, 34635, 35005, 34555, 34426, 34134, 33174, 34007, 34165, 33703, 33982, 34072, 33251, 34127, 34101, 33414, 33968, 34034, 33652, 34270, 33828, 33828, 34332, 33228, 33518, 33889, 33340, 34185, 34282, 33732, 34565, 34130, 33739, 34341, 33848, 33482, 33968, 33488, 33492, 34331, 34107, 33912, 34390, 33989, 34663, 34955, 34142, 34834, 34585, 33680, 34500, 33794, 33826, 34903, 33530, 34075, 34462, 33655, 33558, 34208, 33508, 33311, 34036, 34056, 33820, 34721, 33499, 33636, 34227, 33382, 34270, 34524, 33503, 34034, 34602, 33854, 34743, 34692, 33796, 34559, 33675, 33935, 34526],
      "WindowCenter": [8879.0, 8854.0, 8833.0, 8803.0, 8815.0, 8801.0, 8802.0, 8823.0, 8817.0, 8824.0, 8825.0, 8816.0, 8809.0, 8817.0, 8810.0, 8811.0, 8841.0, 8825.0, 8817.0, 8825.0, 8816.0, 8809.0, 8822.0, 8831.0, 8836.0, 8851.0, 8859.0, 8847.0, 8845.0, 8828.0, 8803.0, 8807.0, 8797.0, 8791.0, 8813.0, 8807.0, 8817.0, 8827.0, 8824.0, 8810.0, 8811.0, 8808.0, 8793.0, 8807.0, 8801.0, 8800.0, 8815.0, 8808.0, 8804.0, 8823.0, 8808.0, 8803.0, 8831.0, 8831.0, 8826.0, 8833.0, 8811.0, 8808.0, 8820.0, 8792.0, 8806.0, 8821.0, 8815.0, 8826.0, 8826.0, 8819.0, 8832.0, 8811.0, 8802.0, 8814.0, 8798.0, 8805.0, 8812.0, 8799.0, 8806.0, 8807.0, 8801.0, 8822.0, 8811.0, 8811.0, 8823.0, 8794.0, 8807.0, 8799.0, 8792.0, 8810.0, 8806.0, 8809.0, 8824.0, 8826.0, 8811.0, 8818.0, 8811.0, 8788.0, 8799.0, 8798.0, 8785.0, 8798.0, 8791.0, 8778.0, 8792.0, 8787.0, 8792.0, 8801.0, 8801.0, 8809.0, 8817.0, 8812.0, 8834.0, 8829.0, 8820.0, 8819.0, 8806.0, 8808.0, 8802.0, 8787.0, 8801.0, 8808.0, 8794.0, 8803.0, 8802.0, 8797.0, 8809.0, 8807.0, 8789.0, 8801.0, 8794.0, 8794.0, 8807.0, 8794.0, 8801.0, 8808.0, 8788.0, 8795.0, 8792.0, 8790.0, 8810.0, 8811.0, 8805.0, 8817.0, 8803.0, 8794.0, 8802.0, 8787.0, 8786.0, 8800.0, 8795.0, 8804.0, 8829.0, 8829.0, 8824.0, 8823.0, 8816.0, 8820.0, 8819.0, 8805.0, 8817.0, 8812.0, 8797.0, 8811.0, 8804.0, 8804.0, 8820.0, 8805.0, 8805.0, 8819.0, 8796.0, 8794.0, 8802.0, 8793.0, 8788.0, 8810.0, 8812.0, 8814.0, 8826.0, 8806.0, 8813.0, 8820.0, 8800.0, 8821.0, 8829.0, 8806.0, 8814.0, 8821.0, 8814.0, 8829.0, 8828.0, 8813.0, 8819.0, 8799.0, 8803.0, 8810.0],
      "WindowWidth": [18838.0, 18785.0, 18732.0, 18675.0, 18696.0, 18671.0, 18675.0, 18712.0, 18702.0, 18715.0, 18719.0, 18699.0, 18687.0, 18702.0, 18692.0, 18697.0, 18752.0, 18721.0, 18709.0, 18721.0, 18700.0, 18687.0, 18712.0, 18727.0, 18741.0, 18774.0, 18789.0, 18769.0, 18763.0, 18727.0, 18679.0, 18679.0, 18658.0, 18651.0, 18690.0, 18685.0, 18706.0, 18729.0, 18720.0, 18698.0, 18699.0, 18690.0, 18660.0, 18682.0, 18669.0, 18669.0, 18697.0, 18685.0, 18683.0, 18711.0, 18682.0, 18677.0, 18728.0, 18730.0, 18725.0, 18735.0, 18693.0, 18686.0, 18701.0, 18654.0, 18679.0, 18707.0, 18700.0, 18727.0, 18730.0, 18720.0, 18740.0, 18704.0, 18683.0, 18701.0, 18669.0, 18681.0, 18692.0, 18669.0, 18680.0, 18683.0, 18674.0, 18712.0, 18694.0, 18695.0, 18712.0, 18662.0, 18683.0, 18667.0, 18659.0, 18693.0, 18687.0, 18694.0, 18724.0, 18729.0, 18698.0, 18709.0, 18695.0, 18650.0, 18665.0, 18660.0, 18641.0, 18663.0, 18650.0, 18628.0, 18656.0, 18649.0, 18657.0, 18676.0, 18672.0, 18692.0, 18707.0, 18703.0, 18745.0, 18737.0, 18721.0, 18718.0, 18695.0, 18693.0, 18680.0, 18654.0, 18677.0, 18687.0, 18665.0, 18680.0, 18678.0, 18674.0, 18688.0, 18680.0, 18652.0, 18672.0, 18660.0, 18661.0, 18682.0, 18660.0, 18676.0, 18688.0, 18654.0, 18665.0, 18658.0, 18661.0, 18694.0, 18696.0, 18690.0, 18707.0, 18678.0, 18660.0, 18672.0, 18643.0, 18637.0, 18666.0, 18662.0, 18682.0, 18732.0, 18734.0, 18726.0, 18725.0, 18711.0, 18715.0, 18712.0, 18689.0, 18709.0, 18701.0, 18677.0, 18702.0, 18690.0, 18691.0, 18720.0, 18692.0, 18692.0, 18712.0, 18666.0, 18660.0, 18673.0, 18654.0, 18651.0, 18693.0, 18697.0, 18704.0, 18722.0, 18688.0, 18698.0, 18711.0, 18681.0, 18718.0, 18734.0, 18693.0, 18708.0, 18722.0, 18711.0, 18737.0, 18734.0, 18704.0, 18712.0, 18677.0, 18682.0, 18694.0]
    },
    "slices": {}
  },
  "NumberOfVolumes": 192
}