{
  "AcquisitionMatrixPE": 104,
  "AcquisitionNumber": 1,
  "AcquisitionTime": "13:26:55.707500",
  "BandwidthPerPixelPhaseEncode": 16.578,
  "BaseResolution": 104,
  "BodyPartExamined": "BRAIN",
  "ConsistencyInfo": "N4_VE11C_LATEST_20160120",
  "ConversionSoftware": "dcm2niix",
  "ConversionSoftwareVersion": "v1.0.20190902",
  "DerivedVendorReportedEchoSpacing": 0.000580009,
  "DeviceSerialNumber": "166018",
  "DwellTime": 2.1e-06,
  "EchoTime": 0.037,
  "EchoTrainLength": 104,
  "EffectiveEchoSpacing": 0.000580009,
  "FlipAngle": 68,
  "ImageComments": "Unaliased_MB6_PE3_LB",
  "ImageOrientationPatientDICOM": [0.999487, 0.0261597, -0.018501, -0.0287911, 0.986645, -0.160318],
  "ImageType": [
    "ORIGINAL",
    "PRIMARY",
    "M",
    "MB",
    "ND",
    "MOSAIC"
],
  "ImagingFrequency": 123.191,
  "InPlanePhaseEncodingDirectionDICOM": "COL",
  "InstitutionAddress": "Washington_Place_6_NYC_NYC_US_10003",
  "InstitutionName": "NYU_Center_for_Brain_Imaging",
  "InstitutionalDepartmentName": "Department",
  "MRAcquisitionType": "2D",
  "MagneticFieldStrength": 3,
  "Manufacturer": "Siemens",
  "ManufacturersModelName": "Prisma",
  "Modality": "MR",
  "MultibandAccelerationFactor": 6,
  "PartialFourier": 1,
  "PatientPosition": "HFS",
  "PercentPhaseFOV": 100,
  "PhaseEncodingDirection": "j",
  "PhaseEncodingSteps": 104,
  "PhaseResolution": 1,
  "PixelBandwidth": 2290,
  "ProcedureStepDescription": "Investigators_Winawer",
  "ProtocolName": "cmrr_mbepi_s6_2mm_66sl_PA_TR1.0",
  "PulseSequenceDetails": "%CustomerSeq%_cmrr_mbep2d_bold",
  "ReceiveCoilActiveElements": "HC1-7",
  "ReceiveCoilName": "HeadNeck_64",
  "ReconMatrixPE": 104,
  "RepetitionTime": 1,
  "SAR": 0.0625584,
  "ScanOptions": "FS",
  "ScanningSequence": "EP",
  "SequenceName": "epfid2d1_104",
  "SequenceVariant": "SK_SS",
  "SeriesDescription": "cmrr_mbepi_s6_2mm_66sl_PA_TR1.0",
  "SeriesNumber": 22,
  "ShimSetting": [257, -12631, -8447, 449, 1, -16, 86, 38],
  "SliceThickness": 2,
  "SliceTiming": [0, 0.535, 0.09, 0.625, 0.18, 0.7125, 0.2675, 0.8025, 0.3575, 0.8925, 0.4475, 0, 0.535, 0.09, 0.625, 0.18, 0.7125, 0.2675, 0.8025, 0.3575, 0.8925, 0.4475, 0, 0.535, 0.09, 0.625, 0.18, 0.7125, 0.2675, 0.8025, 0.3575, 0.8925, 0.4475, 0, 0.535, 0.09, 0.625, 0.18, 0.7125, 0.2675, 0.8025, 0.3575, 0.8925, 0.4475, 0, 0.535, 0.09, 0.625, 0.18, 0.7125, 0.2675, 0.8025, 0.3575, 0.8925, 0.4475, 0, 0.535, 0.09, 0.625, 0.18, 0.7125, 0.2675, 0.8025, 0.3575, 0.8925, 0.4475],
  "SoftwareVersions": "syngo_MR_E11",
  "SpacingBetweenSlices": 2,
  "StationName": "AWP166018",
  "TaskName": "prf",
  "TotalReadoutTime": 0.0597409,
  "TxRefAmp": 214.37,
  "WipMemBlock": "a4c1368d-2d9e-421c-bef0-67749b76a42c||Sequence: ve11c/master r/ab69a6c; Apr 19 2017 09:47:47 by eja",
  "dcmmeta_affine": [
    [-1.9989731311798096, -0.05758224427700043, -0.02812008000910282, 113.10984802246094],
    [-0.05231931060552597, 1.9732909202575684, -0.32153627276420593, -77.13788604736328],
    [-0.03700193762779236, 0.320635586977005, 1.97378408908844, -64.35639953613281],
    [0.0, 0.0, 0.0, 1.0]
],
  "dcmmeta_reorient_transform": [
    [0.0, -1.0, 0.0, 103.0],
    [1.0, 0.0, 0.0, 0.0],
    [0.0, 0.0, 1.0, 0.0],
    [0.0, 0.0, 0.0, 1.0]
],
  "dcmmeta_shape": [104, 104, 66, 192],
  "dcmmeta_slice_dim": 2,
  "dcmmeta_version": 0.6,
  "global": {
    "const": {
      "AccessionNumber": "j94gwt7u",
      "AcquisitionMatrix": [104, 0, 0, 104],
      "AngioFlag": "N",
      "BitsAllocated": 16,
      "BitsStored": 16,
      "BodyPartExamined": "BRAIN",
      "Columns": 936,
      "EchoNumbers": 1,
      "EchoTime": 37.0,
      "EchoTrainLength": 104,
      "FlipAngle": 68.0,
      "HighBit": 15,
      "ImageOrientationPatient": [0.99948656147083, 0.02615965539129, -0.0185009694077, -0.0287911223546, 0.98664546758569, -0.1603177861816],
      "ImagePositionPatient": [-914.79748492973, -968.76494538722, 117.44626990449],
      "ImageType": [
        "ORIGINAL",
        "PRIMARY",
        "M",
        "MB",
        "ND",
        "MOSAIC"
],
      "ImagedNucleus": "1H",
      "ImagingFrequency": 123.191227,
      "InPlanePhaseEncodingDirection": "COL",
      "MRAcquisitionType": "2D",
      "MagneticFieldStrength": 3.0,
      "Manufacturer": "SIEMENS",
      "ManufacturerModelName": "Prisma",
      "Modality": "MR",
      "NumberOfAverages": 1.0,
      "NumberOfPhaseEncodingSteps": 104,
      "PercentPhaseFieldOfView": 100.0,
      "PercentSampling": 100.0,
      "PerformedProcedureStepStartTime": "124416.153000",
      "PhotometricInterpretation": "MONOCHROME2",
      "PixelBandwidth": 2290.0,
      "PixelRepresentation": 0,
      "PixelSpacing": [2.0, 2.0],
      "ProtocolName": "cmrr_mbepi_s6_2mm_66sl_PA_TR1.0",
      "RepetitionTime": 1000.0,
      "Rows": 936,
      "SAR": 0.0625584192918,
      "SamplesPerPixel": 1,
      "ScanOptions": "FS",
      "ScanningSequence": "EP",
      "SequenceName": "epfid2d1_104",
      "SequenceVariant": [
        "SK",
        "SS"
],
      "SeriesDescription": "cmrr_mbepi_s6_2mm_66sl_PA_TR1.0",
      "SeriesNumber": 22,
      "SeriesTime": "132800.019000",
      "SliceLocation": -52.70183357968,
      "SliceThickness": 2.0,
      "SmallestImagePixelValue": 0,
      "SoftwareVersions": "syngo MR E11",
      "SpacingBetweenSlices": 2.0000000044048,
      "SpecificCharacterSet": "ISO_IR 100",
      "StudyID": "2",
      "StudyTime": "124416.101000",
      "TransmitCoilName": "Body",
      "VariableFlipAngleFlag": "N",
      "WindowCenterWidthExplanation": "Algo1",
      "dBdt": 0.0},
    "slices": {}
  },
  "time": {
    "samples": {
      "AcquisitionNumber": [1, 2, 3, 4, 5, 6, 7, 8, 9, 10, 11, 12, 13, 14, 15, 16, 17, 18, 19, 20, 21, 22, 23, 24, 25, 26, 27, 28, 29, 30, 31, 32, 33, 34, 35, 36, 37, 38, 39, 40, 41, 42, 43, 44, 45, 46, 47, 48, 49, 50, 51, 52, 53, 54, 55, 56, 57, 58, 59, 60, 61, 62, 63, 64, 65, 66, 67, 68, 69, 70, 71, 72, 73, 74, 75, 76, 77, 78, 79, 80, 81, 82, 83, 84, 85, 86, 87, 88, 89, 90, 91, 92, 93, 94, 95, 96, 97, 98, 99, 100, 101, 102, 103, 104, 105, 106, 107, 108, 109, 110, 111, 112, 113, 114, 115, 116, 117, 118, 119, 120, 121, 122, 123, 124, 125, 126, 127, 128, 129, 130, 131, 132, 133, 134, 135, 136, 137, 138, 139, 140, 141, 142, 143, 144, 145, 146, 147, 148, 149, 150, 151, 152, 153, 154, 155, 156, 157, 158, 159, 160, 161, 162, 163, 164, 165, 166, 167, 168, 169, 170, 171, 172, 173, 174, 175, 176, 177, 178, 179, 180, 181, 182, 183, 184, 185, 186, 187, 188, 189, 190, 191, 192],
      "AcquisitionTime": ["132655.707500", "132656.707500", "132657.707500", "132658.707500", "132659.707500", "132700.707500", "132701.707500", "132702.707500", "132703.707500", "132704.707500", "132705.707500", "132706.707500", "132707.707500", "132708.707500", "132709.707500", "132710.707500", "132711.707500", "132712.707500", "132713.707500", "132714.707500", "132715.707500", "132716.707500", "132717.707500", "132718.707500", "132719.707500", "132720.707500", "132721.707500", "132722.707500", "132723.707500", "132724.707500", "132725.707500", "132726.707500", "132727.707500", "132728.707500", "132729.707500", "132730.707500", "132731.707500", "132732.707500", "132733.707500", "132734.707500", "132735.707500", "132736.707500", "132737.707500", "132738.707500", "132739.707500", "132740.707500", "132741.707500", "132742.707500", "132743.707500", "132744.707500", "132745.707500", "132746.707500", "132747.707500", "132748.707500", "132749.707500", "132750.707500", "132751.707500", "132752.707500", "132753.707500", "132754.707500", "132755.707500", "132756.707500", "132757.707500", "132758.707500", "132759.707500", "132800.707500", "132801.707500", "132802.707500", "132803.707500", "132804.707500", "132805.707500", "132806.707500", "132807.707500", "132808.707500", "132809.707500", "132810.707500", "132811.707500", "132812.707500", "132813.707500", "132814.707500", "132815.707500", "132816.707500", "132817.707500", "132818.707500", "132819.707500", "132820.707500", "132821.707500", "132822.707500", "132823.707500", "132824.707500", "132825.707500", "132826.707500", "132827.707500", "132828.707500", "132829.707500", "132830.707500", "132831.707500", "132832.707500", "132833.707500", "132834.707500", "132835.707500", "132836.707500", "132837.707500", "132838.707500", "132839.707500", "132840.707500", "132841.707500", "132842.707500", "132843.707500", "132844.707500", "132845.707500", "132846.707500", "132847.707500", "132848.707500", "132849.707500", "132850.707500", "132851.707500", "132852.707500", "132853.707500", "132854.707500", "132855.707500", "132856.707500", "132857.707500", "132858.707500", "132859.707500", "132900.707500", "132901.707500", "132902.707500", "132903.707500", "132904.707500", "132905.707500", "132906.707500", "132907.707500", "132908.707500", "132909.707500", "132910.707500", "132911.707500", "132912.707500", "132913.707500", "132914.707500", "132915.707500", "132916.707500", "132917.707500", "132918.707500", "132919.707500", "132920.707500", "132921.707500", "132922.707500", "132923.707500", "132924.707500", "132925.707500", "132926.707500", "132927.707500", "132928.707500", "132929.707500", "132930.707500", "132931.707500", "132932.707500", "132933.707500", "132934.707500", "132935.707500", "132936.707500", "132937.707500", "132938.707500", "132939.707500", "132940.707500", "132941.707500", "132942.707500", "132943.707500", "132944.707500", "132945.707500", "132946.707500", "132947.707500", "132948.707500", "132949.707500", "132950.707500", "132951.707500", "132952.707500", "132953.707500", "132954.707500", "132955.707500", "132956.707500", "132957.707500", "132958.707500", "132959.707500", "133000.707500", "133001.707500", "133002.707500", "133003.707500", "133004.707500", "133005.707500", "133006.707500"],
      "ContentTime": ["132800.022000", "132800.025000", "132800.032000", "132800.035000", "132800.038000", "132800.040000", "132800.044000", "132800.047000", "132800.049000", "132800.052000", "132800.056000", "132800.059000", "132800.062000", "132800.065000", "132800.068000", "132800.071000", "132800.074000", "132800.082000", "132800.085000", "132800.088000", "132800.091000", "132819.979000", "132819.982000", "132819.985000", "132819.988000", "132819.991000", "132819.994000", "132819.997000", "132820.001000", "132820.007000", "132820.010000", "132820.013000", "132820.016000", "132820.019000", "132820.022000", "132820.025000", "132820.028000", "132820.031000", "132820.034000", "132820.037000", "132820.040000", "132820.043000", "132820.046000", "132820.049000", "132820.052000", "132820.055000", "132820.058000", "132820.061000", "132820.064000", "132839.979000", "132839.982000", "132839.985000", "132839.988000", "132839.991000", "132839.994000", "132839.997000", "132840.000000", "132840.003000", "132840.006000", "132840.009000", "132840.012000", "132840.015000", "132840.018000", "132840.021000", "132840.024000", "132840.027000", "132840.030000", "132840.033000", "132840.036000", "132840.039000", "132840.042000", "132840.045000", "132840.048000", "132840.051000", "132840.054000", "132840.057000", "132840.059000", "132859.979000", "132859.982000", "132859.985000", "132859.988000", "132859.994000", "132859.997000", "132900.001000", "132900.004000", "132900.007000", "132900.010000", "132900.013000", "132900.016000", "132900.019000", "132900.022000", "132900.025000", "132900.028000", "132900.031000", "132900.034000", "132900.037000", "132900.040000", "132900.043000", "132900.046000", "132900.049000", "132900.056000", "132900.059000", "132900.062000", "132900.065000", "132900.068000", "132919.979000", "132919.982000", "132919.985000", "132919.988000", "132919.991000", "132919.994000", "132919.997000", "132920.001000", "132920.004000", "132920.007000", "132920.010000", "132920.013000", "132920.022000", "132920.025000", "132920.028000", "132920.031000", "132920.034000", "132920.037000", "132920.040000", "132920.043000", "132920.046000", "132920.049000", "132920.052000", "132920.055000", "132920.058000", "132920.061000", "132920.064000", "132920.067000", "132939.979000", "132939.982000", "132939.985000", "132939.988000", "132939.991000", "132939.994000", "132939.997000", "132940.001000", "132940.004000", "132940.007000", "132940.010000", "132940.013000", "132940.016000", "132940.019000", "132940.022000", "132940.025000", "132940.028000", "132940.031000", "132940.034000", "132940.037000", "132940.040000", "132940.043000", "132940.046000", "132940.049000", "132940.065000", "132940.068000", "132940.079000", "132940.082000", "132940.085000", "132959.979000", "132959.982000", "132959.985000", "132959.988000", "132959.991000", "132959.995000", "132959.997000", "133000.002000", "133000.005000", "133000.008000", "133000.011000", "133000.014000", "133000.016000", "133000.020000", "133000.023000", "133000.026000", "133000.029000", "133000.032000", "133000.035000", "133000.038000", "133000.041000", "133000.044000", "133007.984000", "133007.987000", "133007.990000", "133007.993000", "133007.996000", "133007.999000", "133008.002000", "133008.005000"],
      "InstanceCreationTime": ["132800.022000", "132800.025000", "132800.032000", "132800.035000", "132800.038000", "132800.040000", "132800.044000", "132800.047000", "132800.049000", "132800.052000", "132800.056000", "132800.059000", "132800.062000", "132800.065000", "132800.068000", "132800.071000", "132800.074000", "132800.082000", "132800.085000", "132800.088000", "132800.091000", "132819.979000", "132819.982000", "132819.985000", "132819.988000", "132819.991000", "132819.994000", "132819.997000", "132820.001000", "132820.007000", "132820.010000", "132820.013000", "132820.016000", "132820.019000", "132820.022000", "132820.025000", "132820.028000", "132820.031000", "132820.034000", "132820.037000", "132820.040000", "132820.043000", "132820.046000", "132820.049000", "132820.052000", "132820.055000", "132820.058000", "132820.061000", "132820.064000", "132839.979000", "132839.982000", "132839.985000", "132839.988000", "132839.991000", "132839.994000", "132839.997000", "132840.000000", "132840.003000", "132840.006000", "132840.009000", "132840.012000", "132840.015000", "132840.018000", "132840.021000", "132840.024000", "132840.027000", "132840.030000", "132840.033000", "132840.036000", "132840.039000", "132840.042000", "132840.045000", "132840.048000", "132840.051000", "132840.054000", "132840.057000", "132840.059000", "132859.979000", "132859.982000", "132859.985000", "132859.988000", "132859.994000", "132859.997000", "132900.001000", "132900.004000", "132900.007000", "132900.010000", "132900.013000", "132900.016000", "132900.019000", "132900.022000", "132900.025000", "132900.028000", "132900.031000", "132900.034000", "132900.037000", "132900.040000", "132900.043000", "132900.046000", "132900.049000", "132900.056000", "132900.059000", "132900.062000", "132900.065000", "132900.068000", "132919.979000", "132919.982000", "132919.985000", "132919.988000", "132919.991000", "132919.994000", "132919.997000", "132920.001000", "132920.004000", "132920.007000", "132920.010000", "132920.013000", "132920.022000", "132920.025000", "132920.028000", "132920.031000", "132920.034000", "132920.037000", "132920.040000", "132920.043000", "132920.046000", "132920.049000", "132920.052000", "132920.055000", "132920.058000", "132920.061000", "132920.064000", "132920.067000", "132939.979000", "132939.982000", "132939.985000", "132939.988000", "132939.991000", "132939.994000", "132939.997000", "132940.001000", "132940.004000", "132940.007000", "132940.010000", "132940.013000", "132940.016000", "132940.019000", "132940.022000", "132940.025000", "132940.028000", "132940.031000", "132940.034000", "132940.037000", "132940.040000", "132940.043000", "132940.046000", "132940.049000", "132940.065000", "132940.068000", "132940.079000", "132940.082000", "132940.085000", "132959.979000", "132959.982000", "132959.985000", "132959.988000", "132959.991000", "132959.995000", "132959.997000", "133000.002000", "133000.005000", "133000.008000", "133000.011000", "133000.014000", "133000.016000", "133000.020000", "133000.023000", "133000.026000", "133000.029000", "133000.032000", "133000.035000", "133000.038000", "133000.041000", "133000.044000", "133007.984000", "133007.987000", "133007.990000", "133007.993000", "133007.996000", "133007.999000", "133008.002000", "133008.005000"],
      "InstanceNumber": [1, 2, 3, 4, 5, 6, 7, 8, 9, 10, 11, 12, 13, 14, 15, 16, 17, 18, 19, 20, 21, 22, 23, 24, 25, 26, 27, 28, 29, 30, 31, 32, 33, 34, 35, 36, 37, 38, 39, 40, 41, 42, 43, 44, 45, 46, 47, 48, 49, 50, 51, 52, 53, 54, 55, 56, 57, 58, 59, 60, 61, 62, 63, 64, 65, 66, 67, 68, 69, 70, 71, 72, 73, 74, 75, 76, 77, 78, 79, 80, 81, 82, 83, 84, 85, 86, 87, 88, 89, 90, 91, 92, 93, 94, 95, 96, 97, 98, 99, 100, 101, 102, 103, 104, 105, 106, 107, 108, 109, 110, 111, 112, 113, 114, 115, 116, 117, 118, 119, 120, 121, 122, 123, 124, 125, 126, 127, 128, 129, 130, 131, 132, 133, 134, 135, 136, 137, 138, 139, 140, 141, 142, 143, 144, 145, 146, 147, 148, 149, 150, 151, 152, 153, 154, 155, 156, 157, 158, 159, 160, 161, 162, 163, 164, 165, 166, 167, 168, 169, 170, 171, 172, 173, 174, 175, 176, 177, 178, 179, 180, 181, 182, 183, 184, 185, 186, 187, 188, 189, 190, 191, 192],
      "LargestImagePixelValue": [36447, 35765, 34624, 35522, 34803, 34699, 35240, 34853, 34369, 34897, 34828, 34858, 34896, 34983, 35151, 35341, 34871, 34599, 35681, 34930, 35112, 35840, 34571, 34739, 34749, 33734, 34383, 34657, 34423, 34437, 33898, 34589, 35031, 34071, 34640, 35502, 34570, 35033, 34943, 34412, 34765, 35126, 34709, 35065, 35315, 34408, 35064, 34534, 34813, 34695, 34220, 35042, 34476, 35001, 35242, 35005, 34733, 35376, 34512, 34160, 35134, 34776, 34841, 35082, 34738, 35535, 35308, 35362, 35864, 34796, 34845, 34894, 34656, 34538, 34853, 34204, 34787, 35283, 34518, 34714, 34971, 33713, 34413, 34557, 34188, 34597, 35160, 34596, 35426, 35473, 34772, 35516, 35097, 34828, 35061, 35192, 34521, 34540, 35159, 34508, 34690, 34781, 34575, 34540, 34660, 34884, 34901, 35168, 34820, 35318, 35859, 35000, 34931, 35602, 34750, 34724, 35683, 35155, 34641, 35616, 34970, 34578, 34756, 34685, 34545, 35038, 34703, 34800, 35297, 34875, 34454, 35442, 35107, 34546, 35483, 34847, 34652, 35087, 35302, 34459, 35850, 35399, 34945, 35355, 35014, 34820, 35817, 35163, 35086, 35774, 34976, 34879, 35485, 35077, 34944, 35333, 34819, 34733, 35409, 34136, 34439, 34884, 34796, 35432, 35471, 34686, 35146, 35079, 34791, 34931, 34525, 34004, 34571, 34583, 34326, 35300, 34525, 34712, 35662, 34360, 34570, 35580, 34615, 34948, 35308, 34305, 34848, 34587, 33925, 34250, 35036, 34313],
      "WindowCenter": [8858.0, 8832.0, 8811.0, 8831.0, 8817.0, 8818.0, 8824.0, 8810.0, 8802.0, 8808.0, 8808.0, 8797.0, 8805.0, 8815.0, 8832.0, 8851.0, 8846.0, 8839.0, 8845.0, 8820.0, 8810.0, 8821.0, 8800.0, 8799.0, 8805.0, 8785.0, 8800.0, 8808.0, 8817.0, 8817.0, 8802.0, 8808.0, 8809.0, 8795.0, 8816.0, 8829.0, 8818.0, 8826.0, 8835.0, 8826.0, 8826.0, 8827.0, 8810.0, 8817.0, 8818.0, 8793.0, 8807.0, 8799.0, 8815.0, 8816.0, 8811.0, 8825.0, 8817.0, 8816.0, 8815.0, 8807.0, 8806.0, 8822.0, 8819.0, 8818.0, 8833.0, 8818.0, 8825.0, 8818.0, 8826.0, 8833.0, 8828.0, 8824.0, 8823.0, 8808.0, 8806.0, 8815.0, 8800.0, 8814.0, 8815.0, 8801.0, 8814.0, 8815.0, 8807.0, 8799.0, 8806.0, 8786.0, 8805.0, 8807.0, 8800.0, 8808.0, 8822.0, 8825.0, 8833.0, 8849.0, 8836.0, 8841.0, 8834.0, 8825.0, 8824.0, 8825.0, 8824.0, 8818.0, 8824.0, 8816.0, 8809.0, 8818.0, 8815.0, 8816.0, 8825.0, 8824.0, 8817.0, 8824.0, 8816.0, 8815.0, 8828.0, 8814.0, 8815.0, 8823.0, 8809.0, 8822.0, 8829.0, 8815.0, 8810.0, 8830.0, 8809.0, 8808.0, 8814.0, 8806.0, 8806.0, 8814.0, 8807.0, 8815.0, 8822.0, 8821.0, 8817.0, 8840.0, 8840.0, 8827.0, 8833.0, 8820.0, 8809.0, 8824.0, 8816.0, 8817.0, 8830.0, 8823.0, 8815.0, 8817.0, 8808.0, 8808.0, 8837.0, 8841.0, 8852.0, 8860.0, 8839.0, 8828.0, 8825.0, 8815.0, 8807.0, 8814.0, 8808.0, 8806.0, 8814.0, 8800.0, 8809.0, 8825.0, 8827.0, 8848.0, 8842.0, 8821.0, 8825.0, 8815.0, 8806.0, 8805.0, 8796.0, 8791.0, 8804.0, 8798.0, 8791.0, 8811.0, 8799.0, 8799.0, 8828.0, 8826.0, 8829.0, 8843.0, 8830.0, 8819.0, 8816.0, 8802.0, 8805.0, 8806.0, 8791.0, 8798.0, 8805.0, 8793.0],
      "WindowWidth": [18787.0, 18731.0, 18694.0, 18728.0, 18701.0, 18705.0, 18712.0, 18685.0, 18672.0, 18681.0, 18683.0, 18658.0, 18676.0, 18697.0, 18735.0, 18777.0, 18771.0, 18760.0, 18768.0, 18717.0, 18693.0, 18705.0, 18667.0, 18664.0, 18673.0, 18639.0, 18667.0, 18684.0, 18701.0, 18701.0, 18674.0, 18682.0, 18685.0, 18662.0, 18701.0, 18725.0, 18708.0, 18725.0, 18745.0, 18725.0, 18726.0, 18727.0, 18694.0, 18703.0, 18705.0, 18655.0, 18680.0, 18663.0, 18696.0, 18700.0, 18689.0, 18714.0, 18696.0, 18694.0, 18694.0, 18678.0, 18674.0, 18706.0, 18709.0, 18707.0, 18735.0, 18706.0, 18724.0, 18709.0, 18729.0, 18743.0, 18732.0, 18723.0, 18718.0, 18688.0, 18682.0, 18701.0, 18669.0, 18696.0, 18698.0, 18674.0, 18694.0, 18694.0, 18681.0, 18663.0, 18675.0, 18641.0, 18674.0, 18680.0, 18668.0, 18686.0, 18713.0, 18724.0, 18738.0, 18771.0, 18748.0, 18755.0, 18741.0, 18720.0, 18717.0, 18719.0, 18716.0, 18707.0, 18717.0, 18698.0, 18688.0, 18704.0, 18697.0, 18702.0, 18722.0, 18718.0, 18708.0, 18719.0, 18702.0, 18699.0, 18722.0, 18701.0, 18702.0, 18719.0, 18693.0, 18715.0, 18727.0, 18701.0, 18692.0, 18723.0, 18685.0, 18681.0, 18690.0, 18674.0, 18676.0, 18693.0, 18682.0, 18695.0, 18706.0, 18703.0, 18703.0, 18749.0, 18749.0, 18729.0, 18737.0, 18714.0, 18691.0, 18720.0, 18702.0, 18703.0, 18725.0, 18711.0, 18696.0, 18705.0, 18684.0, 18686.0, 18741.0, 18756.0, 18781.0, 18797.0, 18756.0, 18732.0, 18719.0, 18698.0, 18686.0, 18697.0, 18687.0, 18684.0, 18700.0, 18677.0, 18695.0, 18728.0, 18734.0, 18770.0, 18758.0, 18720.0, 18722.0, 18699.0, 18678.0, 18675.0, 18654.0, 18650.0, 18673.0, 18663.0, 18653.0, 18684.0, 18666.0, 18667.0, 18722.0, 18728.0, 18737.0, 18762.0, 18744.0, 18718.0, 18709.0, 18683.0, 18682.0, 18679.0, 18651.0, 18664.0, 18676.0, 18658.0]
    },
    "slices": {}
  },
  "NumberOfVolumes": 192
}