{
  "aor": 0.0007155729166666665,
  "aqi": 0.010361604010416667,
  "bids_meta": {
    "AcquisitionMatrixPE": 104,
    "AcquisitionNumber": 1,
    "AcquisitionTime": "15:42:38.462500",
    "BandwidthPerPixelPhaseEncode": 16.578,
    "BaseResolution": 104,
    "BodyPartExamined": "BRAIN",
    "CogAtlasID": "TODO",
    "ConsistencyInfo": "N4_VE11C_LATEST_20160120",
    "ConversionSoftware": "dcm2niix",
    "ConversionSoftwareVersion": "v1.0.20190902",
    "DerivedVendorReportedEchoSpacing": 0.000580009,
    "DeviceSerialNumber": "166018",
    "DwellTime": 2.1e-06,
    "EchoTime": 0.037,
    "EchoTrainLength": 104,
    "EffectiveEchoSpacing": 0.000580009,
    "FlipAngle": 68,
    "ImageComments": "Unaliased_MB6_PE3_LB",
    "ImageOrientationPatientDICOM": [
      0.996194,
      0.0558761,
      0.0669029,
      -0.0431464,
      0.98299,
      -0.178519
    ],
    "ImageType": [
      "ORIGINAL",
      "PRIMARY",
      "M",
      "MB",
      "ND",
      "MOSAIC"
    ],
    "ImagingFrequency": 123.191,
    "InPlanePhaseEncodingDirectionDICOM": "COL",
    "InstitutionAddress": "Washington_Place_6_NYC_NYC_US_10003",
    "InstitutionName": "NYU_-_CBI",
    "InstitutionalDepartmentName": "Department",
    "MRAcquisitionType": "2D",
    "MagneticFieldStrength": 3,
    "Manufacturer": "Siemens",
    "ManufacturersModelName": "Prisma",
    "Modality": "MR",
    "MultibandAccelerationFactor": 6,
    "NumberOfVolumes": 192,
    "PartialFourier": 1,
    "PatientPosition": "HFS",
    "PercentPhaseFOV": 100,
    "PhaseEncodingDirection": "j",
    "PhaseEncodingSteps": 104,
    "PhaseResolution": 1,
    "PixelBandwidth": 2290,
    "ProcedureStepDescription": "Investigators_Winawer",
    "ProtocolName": "cmrr_mbepi_s6_2mm_66sl_PA_task-prf",
    "PulseSequenceDetails": "%CustomerSeq%_cmrr_mbep2d_bold",
    "ReceiveCoilActiveElements": "HC1-7",
    "ReceiveCoilName": "HeadNeck_64",
    "ReconMatrixPE": 104,
    "RepetitionTime": 1,
    "SAR": 0.0774596,
    "ScanOptions": "FS",
    "ScanningSequence": "EP",
    "SequenceName": "epfid2d1_104",
    "SequenceVariant": "SK_SS",
    "SeriesDescription": "cmrr_mbepi_s6_2mm_66sl_PA_task-prf",
    "SeriesNumber": 12,
    "ShimSetting": [
      270,
      -12637,
      -8462,
      307,
      -98,
      -163,
      -127,
      8
    ],
    "SliceThickness": 2,
    "SliceTiming": [
      0,
      0.535,
      0.09,
      0.625,
      0.18,
      0.7125,
      0.2675,
      0.8025,
      0.3575,
      0.8925,
      0.4475,
      0,
      0.535,
      0.09,
      0.625,
      0.18,
      0.7125,
      0.2675,
      0.8025,
      0.3575,
      0.8925,
      0.4475,
      0,
      0.535,
      0.09,
      0.625,
      0.18,
      0.7125,
      0.2675,
      0.8025,
      0.3575,
      0.8925,
      0.4475,
      0,
      0.535,
      0.09,
      0.625,
      0.18,
      0.7125,
      0.2675,
      0.8025,
      0.3575,
      0.8925,
      0.4475,
      0,
      0.535,
      0.09,
      0.625,
      0.18,
      0.7125,
      0.2675,
      0.8025,
      0.3575,
      0.8925,
      0.4475,
      0,
      0.535,
      0.09,
      0.625,
      0.18,
      0.7125,
      0.2675,
      0.8025,
      0.3575,
      0.8925,
      0.4475
    ],
    "SoftwareVersions": "syngo_MR_E11",
    "SpacingBetweenSlices": 2,
    "StationName": "AWP166018",
    "TaskName": "prf",
    "TotalReadoutTime": 0.0597409,
    "TxRefAmp": 236.358,
    "WipMemBlock": "4e5a90b2-191d-43cf-a7f6-2bac17c3373a||Sequence: R016 ve11c/master r/8780670; Nov 27 2017 15:05:12 by eja",
    "acq_id": "PA",
    "dataset": "unknown",
    "dcmmeta_affine": [
      [
        -1.9923874139785767,
        -0.08629276603460312,
        0.15147976577281952,
        112.37262725830078
      ],
      [
        -0.11175215989351273,
        1.965979814529419,
        -0.3499065637588501,
        -61.655330657958984
      ],
      [
        0.13380587100982666,
        0.35703879594802856,
        1.9633184671401978,
        -64.42306518554688
      ],
      [
        0.0,
        0.0,
        0.0,
        1.0
      ]
    ],
    "dcmmeta_reorient_transform": [
      [
        0.0,
        -1.0,
        0.0,
        103.0
      ],
      [
        1.0,
        0.0,
        0.0,
        0.0
      ],
      [
        0.0,
        0.0,
        1.0,
        0.0
      ],
      [
        0.0,
        0.0,
        0.0,
        1.0
      ]
    ],
    "dcmmeta_shape": [
      104,
      104,
      66,
      192
    ],
    "dcmmeta_slice_dim": 2,
    "dcmmeta_version": 0.6,
    "global": {
      "const": {
        "AccessionNumber": "K3OVXJG2",
        "AcquisitionMatrix": [
          104,
          0,
          0,
          104
        ],
        "AngioFlag": "N",
        "BitsAllocated": 16,
        "BitsStored": 16,
        "BodyPartExamined": "BRAIN",
        "Columns": 936,
        "EchoNumbers": 1,
        "EchoTime": 37.0,
        "EchoTrainLength": 104,
        "FlipAngle": 68.0,
        "HighBit": 15,
        "ImageOrientationPatient": [
          0.99619368619562,
          0.05587608117034,
          0.06690293817938,
          -0.0431463823089,
          0.98298993700032,
          -0.1785193923633
        ],
        "ImagePositionPatient": [
          -896.419826811,
          -1005.1771235864,
          65.216817491896
        ],
        "ImageType": [
          "ORIGINAL",
          "PRIMARY",
          "M",
          "MB",
          "ND",
          "MOSAIC"
        ],
        "ImagedNucleus": "1H",
        "ImagingFrequency": 123.190849,
        "InPlanePhaseEncodingDirection": "COL",
        "MRAcquisitionType": "2D",
        "MagneticFieldStrength": 3.0,
        "Manufacturer": "SIEMENS",
        "ManufacturerModelName": "Prisma",
        "Modality": "MR",
        "NumberOfAverages": 1.0,
        "NumberOfPhaseEncodingSteps": 104,
        "PercentPhaseFieldOfView": 100.0,
        "PercentSampling": 100.0,
        "PerformedProcedureStepStartTime": "152235.370000",
        "PhotometricInterpretation": "MONOCHROME2",
        "PixelBandwidth": 2290.0,
        "PixelRepresentation": 0,
        "PixelSpacing": [
          2.0,
          2.0
        ],
        "ProtocolName": "cmrr_mbepi_s6_2mm_66sl_PA_task-prf",
        "RepetitionTime": 1000.0,
        "Rows": 936,
        "SAR": 0.07745955755663,
        "SamplesPerPixel": 1,
        "ScanOptions": "FS",
        "ScanningSequence": "EP",
        "SequenceName": "epfid2d1_104",
        "SequenceVariant": [
          "SK",
          "SS"
        ],
        "SeriesDescription": "cmrr_mbepi_s6_2mm_66sl_PA_task-prf",
        "SeriesNumber": 12,
        "SeriesTime": "154404.613000",
        "SliceLocation": -43.943607078398,
        "SliceThickness": 2.0,
        "SmallestImagePixelValue": 0,
        "SoftwareVersions": "syngo MR E11",
        "SpacingBetweenSlices": 2.0000000779509,
        "SpecificCharacterSet": "ISO_IR 100",
        "StudyID": "1",
        "StudyTime": "152235.317000",
        "TransmitCoilName": "Body",
        "VariableFlipAngleFlag": "N",
        "WindowCenterWidthExplanation": "Algo1",
        "dBdt": 0.0
      },
      "slices": {}
    },
    "modality": "bold",
    "run_id": 2,
    "session_id": "nyu3t01",
    "subject_id": "wlsubj019",
    "task_id": "prf",
    "time": {
      "samples": {
        "AcquisitionNumber": [
          1,
          2,
          3,
          4,
          5,
          6,
          7,
          8,
          9,
          10,
          11,
          12,
          13,
          14,
          15,
          16,
          17,
          18,
          19,
          20,
          21,
          22,
          23,
          24,
          25,
          26,
          27,
          28,
          29,
          30,
          31,
          32,
          33,
          34,
          35,
          36,
          37,
          38,
          39,
          40,
          41,
          42,
          43,
          44,
          45,
          46,
          47,
          48,
          49,
          50,
          51,
          52,
          53,
          54,
          55,
          56,
          57,
          58,
          59,
          60,
          61,
          62,
          63,
          64,
          65,
          66,
          67,
          68,
          69,
          70,
          71,
          72,
          73,
          74,
          75,
          76,
          77,
          78,
          79,
          80,
          81,
          82,
          83,
          84,
          85,
          86,
          87,
          88,
          89,
          90,
          91,
          92,
          93,
          94,
          95,
          96,
          97,
          98,
          99,
          100,
          101,
          102,
          103,
          104,
          105,
          106,
          107,
          108,
          109,
          110,
          111,
          112,
          113,
          114,
          115,
          116,
          117,
          118,
          119,
          120,
          121,
          122,
          123,
          124,
          125,
          126,
          127,
          128,
          129,
          130,
          131,
          132,
          133,
          134,
          135,
          136,
          137,
          138,
          139,
          140,
          141,
          142,
          143,
          144,
          145,
          146,
          147,
          148,
          149,
          150,
          151,
          152,
          153,
          154,
          155,
          156,
          157,
          158,
          159,
          160,
          161,
          162,
          163,
          164,
          165,
          166,
          167,
          168,
          169,
          170,
          171,
          172,
          173,
          174,
          175,
          176,
          177,
          178,
          179,
          180,
          181,
          182,
          183,
          184,
          185,
          186,
          187,
          188,
          189,
          190,
          191,
          192
        ],
        "AcquisitionTime": [
          "154238.462500",
          "154239.462500",
          "154240.462500",
          "154241.462500",
          "154242.462500",
          "154243.462500",
          "154244.462500",
          "154245.462500",
          "154246.462500",
          "154247.462500",
          "154248.462500",
          "154249.462500",
          "154250.462500",
          "154251.462500",
          "154252.462500",
          "154253.462500",
          "154254.462500",
          "154255.462500",
          "154256.462500",
          "154257.462500",
          "154258.462500",
          "154259.462500",
          "154300.462500",
          "154301.462500",
          "154302.462500",
          "154303.462500",
          "154304.462500",
          "154305.462500",
          "154306.462500",
          "154307.462500",
          "154308.462500",
          "154309.462500",
          "154310.462500",
          "154311.462500",
          "154312.462500",
          "154313.462500",
          "154314.462500",
          "154315.462500",
          "154316.462500",
          "154317.462500",
          "154318.462500",
          "154319.462500",
          "154320.462500",
          "154321.462500",
          "154322.462500",
          "154323.462500",
          "154324.462500",
          "154325.462500",
          "154326.462500",
          "154327.462500",
          "154328.462500",
          "154329.462500",
          "154330.462500",
          "154331.462500",
          "154332.462500",
          "154333.462500",
          "154334.462500",
          "154335.462500",
          "154336.462500",
          "154337.462500",
          "154338.462500",
          "154339.462500",
          "154340.462500",
          "154341.462500",
          "154342.462500",
          "154343.462500",
          "154344.462500",
          "154345.462500",
          "154346.462500",
          "154347.462500",
          "154348.462500",
          "154349.462500",
          "154350.462500",
          "154351.462500",
          "154352.462500",
          "154353.462500",
          "154354.462500",
          "154355.462500",
          "154356.462500",
          "154357.462500",
          "154358.462500",
          "154359.462500",
          "154400.462500",
          "154401.462500",
          "154402.462500",
          "154403.462500",
          "154404.462500",
          "154405.462500",
          "154406.462500",
          "154407.462500",
          "154408.462500",
          "154409.462500",
          "154410.462500",
          "154411.462500",
          "154412.462500",
          "154413.462500",
          "154414.462500",
          "154415.462500",
          "154416.462500",
          "154417.462500",
          "154418.462500",
          "154419.462500",
          "154420.462500",
          "154421.462500",
          "154422.462500",
          "154423.462500",
          "154424.462500",
          "154425.462500",
          "154426.462500",
          "154427.462500",
          "154428.462500",
          "154429.462500",
          "154430.462500",
          "154431.462500",
          "154432.462500",
          "154433.462500",
          "154434.462500",
          "154435.462500",
          "154436.462500",
          "154437.462500",
          "154438.462500",
          "154439.462500",
          "154440.462500",
          "154441.462500",
          "154442.462500",
          "154443.462500",
          "154444.462500",
          "154445.462500",
          "154446.462500",
          "154447.462500",
          "154448.462500",
          "154449.462500",
          "154450.462500",
          "154451.462500",
          "154452.462500",
          "154453.462500",
          "154454.462500",
          "154455.462500",
          "154456.462500",
          "154457.462500",
          "154458.462500",
          "154459.462500",
          "154500.462500",
          "154501.462500",
          "154502.462500",
          "154503.462500",
          "154504.462500",
          "154505.462500",
          "154506.462500",
          "154507.462500",
          "154508.462500",
          "154509.462500",
          "154510.462500",
          "154511.462500",
          "154512.462500",
          "154513.462500",
          "154514.462500",
          "154515.462500",
          "154516.462500",
          "154517.462500",
          "154518.462500",
          "154519.462500",
          "154520.462500",
          "154521.462500",
          "154522.462500",
          "154523.462500",
          "154524.462500",
          "154525.462500",
          "154526.462500",
          "154527.462500",
          "154528.462500",
          "154529.462500",
          "154530.462500",
          "154531.462500",
          "154532.462500",
          "154533.462500",
          "154534.462500",
          "154535.462500",
          "154536.462500",
          "154537.462500",
          "154538.462500",
          "154539.462500",
          "154540.462500",
          "154541.462500",
          "154542.462500",
          "154543.462500",
          "154544.462500",
          "154545.462500",
          "154546.462500",
          "154547.462500",
          "154548.462500",
          "154549.462500"
        ],
        "ContentTime": [
          "154404.616000",
          "154404.620000",
          "154404.623000",
          "154404.626000",
          "154404.629000",
          "154404.632000",
          "154404.642000",
          "154404.645000",
          "154404.648000",
          "154404.651000",
          "154404.654000",
          "154404.667000",
          "154404.670000",
          "154404.672000",
          "154404.675000",
          "154404.678000",
          "154404.681000",
          "154404.684000",
          "154404.687000",
          "154404.690000",
          "154404.693000",
          "154404.698000",
          "154404.702000",
          "154404.705000",
          "154404.708000",
          "154404.711000",
          "154404.714000",
          "154404.717000",
          "154404.720000",
          "154404.723000",
          "154404.726000",
          "154404.729000",
          "154404.732000",
          "154404.735000",
          "154404.738000",
          "154404.741000",
          "154404.744000",
          "154404.747000",
          "154404.749000",
          "154404.752000",
          "154404.755000",
          "154404.758000",
          "154404.761000",
          "154424.587000",
          "154424.590000",
          "154424.593000",
          "154424.596000",
          "154424.603000",
          "154424.606000",
          "154424.609000",
          "154424.612000",
          "154424.615000",
          "154424.618000",
          "154424.621000",
          "154424.624000",
          "154424.627000",
          "154424.630000",
          "154424.633000",
          "154424.636000",
          "154424.639000",
          "154424.641000",
          "154424.644000",
          "154424.647000",
          "154424.650000",
          "154424.653000",
          "154424.656000",
          "154424.659000",
          "154424.662000",
          "154424.665000",
          "154424.668000",
          "154424.671000",
          "154424.674000",
          "154444.586000",
          "154444.589000",
          "154444.592000",
          "154444.595000",
          "154444.598000",
          "154444.601000",
          "154444.603000",
          "154444.607000",
          "154444.610000",
          "154444.612000",
          "154444.615000",
          "154444.618000",
          "154444.621000",
          "154444.624000",
          "154444.627000",
          "154444.630000",
          "154444.633000",
          "154444.636000",
          "154444.639000",
          "154444.642000",
          "154444.645000",
          "154444.648000",
          "154444.650000",
          "154444.654000",
          "154444.656000",
          "154444.659000",
          "154444.662000",
          "154444.665000",
          "154504.586000",
          "154504.589000",
          "154504.592000",
          "154504.595000",
          "154504.598000",
          "154504.600000",
          "154504.603000",
          "154504.606000",
          "154504.609000",
          "154504.613000",
          "154504.616000",
          "154504.619000",
          "154504.622000",
          "154504.625000",
          "154504.628000",
          "154504.631000",
          "154504.634000",
          "154504.637000",
          "154504.640000",
          "154504.643000",
          "154504.645000",
          "154504.648000",
          "154504.651000",
          "154504.654000",
          "154504.657000",
          "154504.660000",
          "154504.663000",
          "154504.666000",
          "154524.587000",
          "154524.590000",
          "154524.593000",
          "154524.596000",
          "154524.599000",
          "154524.602000",
          "154524.605000",
          "154524.608000",
          "154524.611000",
          "154524.614000",
          "154524.616000",
          "154524.619000",
          "154524.622000",
          "154524.625000",
          "154524.628000",
          "154524.631000",
          "154524.634000",
          "154524.637000",
          "154524.640000",
          "154524.643000",
          "154524.646000",
          "154524.649000",
          "154524.652000",
          "154524.655000",
          "154524.658000",
          "154524.661000",
          "154524.664000",
          "154524.667000",
          "154544.588000",
          "154544.592000",
          "154544.595000",
          "154544.598000",
          "154544.601000",
          "154544.604000",
          "154544.607000",
          "154544.610000",
          "154544.613000",
          "154544.616000",
          "154544.619000",
          "154544.622000",
          "154544.625000",
          "154544.628000",
          "154544.631000",
          "154544.634000",
          "154544.637000",
          "154544.640000",
          "154544.643000",
          "154544.646000",
          "154544.649000",
          "154544.652000",
          "154544.655000",
          "154544.658000",
          "154544.661000",
          "154544.664000",
          "154544.667000",
          "154544.670000",
          "154551.230000",
          "154551.233000",
          "154551.237000",
          "154551.240000",
          "154551.243000",
          "154551.245000",
          "154551.248000",
          "154551.252000"
        ],
        "InstanceCreationTime": [
          "154404.616000",
          "154404.620000",
          "154404.623000",
          "154404.626000",
          "154404.629000",
          "154404.632000",
          "154404.642000",
          "154404.645000",
          "154404.648000",
          "154404.651000",
          "154404.654000",
          "154404.667000",
          "154404.670000",
          "154404.672000",
          "154404.675000",
          "154404.678000",
          "154404.681000",
          "154404.684000",
          "154404.687000",
          "154404.690000",
          "154404.693000",
          "154404.698000",
          "154404.702000",
          "154404.705000",
          "154404.708000",
          "154404.711000",
          "154404.714000",
          "154404.717000",
          "154404.720000",
          "154404.723000",
          "154404.726000",
          "154404.729000",
          "154404.732000",
          "154404.735000",
          "154404.738000",
          "154404.741000",
          "154404.744000",
          "154404.747000",
          "154404.749000",
          "154404.752000",
          "154404.755000",
          "154404.758000",
          "154404.761000",
          "154424.587000",
          "154424.590000",
          "154424.593000",
          "154424.596000",
          "154424.603000",
          "154424.606000",
          "154424.609000",
          "154424.612000",
          "154424.615000",
          "154424.618000",
          "154424.621000",
          "154424.624000",
          "154424.627000",
          "154424.630000",
          "154424.633000",
          "154424.636000",
          "154424.639000",
          "154424.641000",
          "154424.644000",
          "154424.647000",
          "154424.650000",
          "154424.653000",
          "154424.656000",
          "154424.659000",
          "154424.662000",
          "154424.665000",
          "154424.668000",
          "154424.671000",
          "154424.674000",
          "154444.586000",
          "154444.589000",
          "154444.592000",
          "154444.595000",
          "154444.598000",
          "154444.601000",
          "154444.603000",
          "154444.607000",
          "154444.610000",
          "154444.612000",
          "154444.615000",
          "154444.618000",
          "154444.621000",
          "154444.624000",
          "154444.627000",
          "154444.630000",
          "154444.633000",
          "154444.636000",
          "154444.639000",
          "154444.642000",
          "154444.645000",
          "154444.648000",
          "154444.650000",
          "154444.654000",
          "154444.656000",
          "154444.659000",
          "154444.662000",
          "154444.665000",
          "154504.586000",
          "154504.589000",
          "154504.592000",
          "154504.595000",
          "154504.598000",
          "154504.600000",
          "154504.603000",
          "154504.606000",
          "154504.609000",
          "154504.613000",
          "154504.616000",
          "154504.619000",
          "154504.622000",
          "154504.625000",
          "154504.628000",
          "154504.631000",
          "154504.634000",
          "154504.637000",
          "154504.640000",
          "154504.643000",
          "154504.645000",
          "154504.648000",
          "154504.651000",
          "154504.654000",
          "154504.657000",
          "154504.660000",
          "154504.663000",
          "154504.666000",
          "154524.587000",
          "154524.590000",
          "154524.593000",
          "154524.596000",
          "154524.599000",
          "154524.602000",
          "154524.605000",
          "154524.608000",
          "154524.611000",
          "154524.614000",
          "154524.616000",
          "154524.619000",
          "154524.622000",
          "154524.625000",
          "154524.628000",
          "154524.631000",
          "154524.634000",
          "154524.637000",
          "154524.640000",
          "154524.643000",
          "154524.646000",
          "154524.649000",
          "154524.652000",
          "154524.655000",
          "154524.658000",
          "154524.661000",
          "154524.664000",
          "154524.667000",
          "154544.588000",
          "154544.592000",
          "154544.595000",
          "154544.598000",
          "154544.601000",
          "154544.604000",
          "154544.607000",
          "154544.610000",
          "154544.613000",
          "154544.616000",
          "154544.619000",
          "154544.622000",
          "154544.625000",
          "154544.628000",
          "154544.631000",
          "154544.634000",
          "154544.637000",
          "154544.640000",
          "154544.643000",
          "154544.646000",
          "154544.649000",
          "154544.652000",
          "154544.655000",
          "154544.658000",
          "154544.661000",
          "154544.664000",
          "154544.667000",
          "154544.670000",
          "154551.230000",
          "154551.233000",
          "154551.237000",
          "154551.240000",
          "154551.243000",
          "154551.245000",
          "154551.248000",
          "154551.252000"
        ],
        "InstanceNumber": [
          1,
          2,
          3,
          4,
          5,
          6,
          7,
          8,
          9,
          10,
          11,
          12,
          13,
          14,
          15,
          16,
          17,
          18,
          19,
          20,
          21,
          22,
          23,
          24,
          25,
          26,
          27,
          28,
          29,
          30,
          31,
          32,
          33,
          34,
          35,
          36,
          37,
          38,
          39,
          40,
          41,
          42,
          43,
          44,
          45,
          46,
          47,
          48,
          49,
          50,
          51,
          52,
          53,
          54,
          55,
          56,
          57,
          58,
          59,
          60,
          61,
          62,
          63,
          64,
          65,
          66,
          67,
          68,
          69,
          70,
          71,
          72,
          73,
          74,
          75,
          76,
          77,
          78,
          79,
          80,
          81,
          82,
          83,
          84,
          85,
          86,
          87,
          88,
          89,
          90,
          91,
          92,
          93,
          94,
          95,
          96,
          97,
          98,
          99,
          100,
          101,
          102,
          103,
          104,
          105,
          106,
          107,
          108,
          109,
          110,
          111,
          112,
          113,
          114,
          115,
          116,
          117,
          118,
          119,
          120,
          121,
          122,
          123,
          124,
          125,
          126,
          127,
          128,
          129,
          130,
          131,
          132,
          133,
          134,
          135,
          136,
          137,
          138,
          139,
          140,
          141,
          142,
          143,
          144,
          145,
          146,
          147,
          148,
          149,
          150,
          151,
          152,
          153,
          154,
          155,
          156,
          157,
          158,
          159,
          160,
          161,
          162,
          163,
          164,
          165,
          166,
          167,
          168,
          169,
          170,
          171,
          172,
          173,
          174,
          175,
          176,
          177,
          178,
          179,
          180,
          181,
          182,
          183,
          184,
          185,
          186,
          187,
          188,
          189,
          190,
          191,
          192
        ],
        "LargestImagePixelValue": [
          40627,
          39567,
          39273,
          38675,
          38688,
          38122,
          38949,
          38034,
          37797,
          37783,
          37785,
          37735,
          37278,
          37775,
          37838,
          39820,
          37908,
          37927,
          37574,
          37908,
          42043,
          37998,
          37565,
          38301,
          37357,
          37494,
          40604,
          37451,
          39029,
          37668,
          39848,
          38000,
          37613,
          38762,
          39684,
          37533,
          37503,
          37676,
          37918,
          37538,
          46301,
          44114,
          38900,
          40423,
          38502,
          42777,
          44543,
          37722,
          40313,
          37802,
          38381,
          37955,
          38135,
          37628,
          37144,
          38593,
          38059,
          38344,
          38563,
          38109,
          39778,
          39067,
          42755,
          38060,
          37947,
          38485,
          38069,
          39091,
          38111,
          43029,
          49594,
          38576,
          37988,
          38191,
          38130,
          38627,
          38158,
          38054,
          38242,
          38886,
          38039,
          42182,
          38094,
